1661941270.00
64.000000
-0.00
-0.00
-0.00
-0.00
-0.00
-0.00
-0.00
-0.00
-0.00
-0.00
0.00
0.01
0.01
-0.00
-0.03
-0.05
-0.05
0.00
0.13
0.36
0.66
1.01
1.37
1.72
2.06
2.40
2.79
3.24
3.80
4.42
5.06
5.66
6.20
6.68
7.15
7.68
8.31
9.14
10.09
11.04
11.88
12.56
13.14
13.76
14.65
15.96
17.91
20.32
22.90
25.38
27.58
29.57
31.68
34.32
37.81
42.54
48.15
54.10
59.83
64.97
69.58
74.14
79.34
85.71
93.76
103.00
112.62
121.73
129.77
136.75
143.30
150.75
157.77
166.64
177.95
191.79
206.97
220.57
228.25
225.36
208.53
176.87
132.76
80.05
23.07
-34.94
-92.44
-149.16
-205.23
-260.37
-313.74
-363.87
-409.83
-450.91
-486.50
-515.74
-537.23
-549.22
-549.96
-538.37
-514.21
-478.67
-433.88
-382.45
-327.02
-269.84
-212.63
-156.66
-102.95
-52.37
-5.90
35.58
71.43
101.35
125.50
144.38
158.69
169.15
176.37
180.75
182.57
182.07
179.51
175.23
169.65
163.18
156.15
148.81
141.30
133.69
126.02
118.33
110.68
103.15
95.81
88.70
81.85
75.27
68.95
62.89
57.13
51.67
46.54
41.76
37.32
33.20
29.37
25.82
22.50
19.43
16.61
14.07
11.82
9.85
8.16
6.68
5.36
4.16
3.07
2.11
1.32
0.73
0.32
0.04
-0.22
-0.57
-1.06
-1.68
-2.32
-2.84
-3.13
-3.18
-3.09
-3.07
-3.31
-3.95
-4.94
-6.06
-7.03
-7.59
-7.68
-7.47
-7.30
-7.55
-8.44
-9.94
-11.74
-13.40
-14.53
-14.95
-14.77
-14.35
-14.19
-14.75
-16.41
-19.28
-22.95
-26.41
-28.20
-26.85
-21.57
-12.74
-2.00
8.29
15.97
19.82
19.99
17.77
14.99
13.41
14.12
17.47
23.01
29.80
36.54
42.00
45.26
45.89
44.08
40.40
35.58
30.33
25.21
20.63
16.90
14.17
12.51
11.79
11.81
12.36
13.23
14.34
15.68
17.18
18.69
19.91
20.42
19.80
17.77
14.43
9.93
4.78
-0.42
-5.22
-9.38
-12.91
-16.02
-18.83
-21.37
-23.46
-24.83
-25.32
-25.02
-24.21
-23.30
-22.57
-22.03
-21.53
-20.82
-19.74
-18.36
-16.89
-15.62
-14.79
-14.52
-14.82
-15.61
-16.58
-17.16
-16.55
-13.97
-8.98
-1.84
6.48
14.58
21.07
25.02
26.24
25.08
22.25
18.44
14.12
9.57
4.93
0.38
-3.83
-7.36
-9.90
-11.26
-11.47
-10.73
-9.43
-7.91
-6.35
-4.77
-2.99
-0.88
1.48
3.76
5.44
6.03
5.21
2.94
-0.64
-5.09
-9.72
-13.68
-16.08
-16.10
-13.21
-7.31
1.14
11.26
21.90
31.89
40.27
46.34
49.73
50.32
48.25
43.88
37.72
30.50
22.94
15.79
9.64
4.82
1.42
-0.75
-1.95
-2.35
-1.99
-0.86
0.91
2.90
4.41
4.72
3.40
0.50
-3.45
-7.65
-11.39
-14.36
-16.72
-18.92
-21.51
-24.83
-28.91
-33.50
-38.21
-42.66
-46.70
-50.41
-54.04
-57.97
-62.56
-68.06
-74.47
-81.33
-87.64
-91.88
-92.35
-87.64
-77.20
-61.56
-42.30
-21.52
-1.31
16.76
31.82
43.56
52.04
57.39
59.78
59.40
56.56
51.70
45.42
38.42
31.43
25.09
19.87
15.98
13.34
11.70
10.65
9.80
8.89
7.68
6.08
3.99
1.42
-1.58
-4.95
-8.70
-13.02
-18.28
-24.89
-32.99
-42.21
-51.50
-59.25
-63.67
-63.25
-57.26
-46.00
-30.74
-13.37
4.10
19.98
33.25
43.49
50.83
55.58
58.04
58.43
56.91
53.63
48.93
43.29
37.24
31.30
25.83
21.00
16.85
13.30
10.22
7.49
4.99
2.58
0.09
-2.64
-5.82
-9.65
-14.33
-20.04
-26.92
-34.98
-43.96
-53.19
-61.56
-67.64
-69.91
-67.25
-59.24
-46.39
-30.06
-12.02
5.93
22.34
36.36
47.57
55.86
61.31
64.08
64.47
62.91
59.91
55.90
51.21
46.02
40.51
34.89
29.57
24.98
21.47
19.06
17.46
16.06
14.24
11.58
8.03
3.82
-0.73
-5.39
-10.12
-15.08
-20.47
-26.54
-33.42
-41.21
-49.74
-58.44
-66.14
-71.24
-72.01
-67.25
-56.74
-41.45
-23.21
-4.14
13.92
29.84
43.09
53.57
61.33
66.43
69.01
69.34
67.86
65.05
61.34
57.04
52.37
47.58
43.02
39.09
36.15
34.38
33.68
33.68
33.87
33.68
32.65
30.55
27.41
23.52
19.27
14.96
10.65
6.12
1.05
-4.79
-11.38
-18.35
-25.18
-31.38
-36.76
-41.51
-46.12
-51.18
-57.22
-64.51
-72.85
-81.44
-88.83
-93.24
-92.91
-86.73
-74.66
-57.83
-38.19
-17.92
1.15
17.90
31.91
43.18
51.80
57.82
61.22
62.14
60.90
58.06
54.27
50.08
45.84
41.74
37.95
34.68
32.24
30.84
30.46
30.79
31.24
31.17
30.16
28.05
25.04
21.44
17.54
13.46
9.16
4.51
-0.55
-5.97
-11.57
-17.16
-22.58
-27.83
-33.02
-38.41
-44.31
-50.98
-58.49
-66.53
-74.26
-80.27
-82.89
-80.58
-72.53
-59.01
-41.39
-21.77
-2.37
15.10
29.64
40.99
49.28
54.78
57.73
58.37
57.06
54.24
50.42
46.04
41.46
36.96
32.81
29.30
26.65
24.99
24.19
23.95
23.85
23.53
22.73
21.31
19.18
16.28
12.60
8.18
3.17
-2.23
-7.75
-13.19
-18.37
-23.24
-27.79
-32.15
-36.53
-41.20
-46.52
-52.73
-59.83
-67.35
-74.24
-79.01
-79.99
-75.95
-66.46
-52.16
-34.61
-15.79
2.41
18.63
32.12
42.61
50.08
54.61
56.38
55.78
53.38
49.83
45.74
41.52
37.46
33.70
30.40
27.75
25.89
24.93
24.80
25.39
26.47
27.81
29.06
29.85
29.80
28.63
26.31
23.12
19.50
15.92
12.66
9.71
6.84
3.78
0.41
-3.13
-6.56
-9.56
-11.99
-13.96
-15.75
-17.73
-20.16
-23.20
-26.89
-31.10
-35.59
-39.88
-43.25
-44.82
-43.70
-39.35
-31.73
-21.50
-9.79
2.01
12.60
21.02
26.71
29.46
29.27
26.33
21.02
13.95
5.95
-2.08
-9.37
-15.46
-20.29
-24.11
-27.32
-30.21
-32.89
-35.26
-37.17
-38.49
-39.35
-40.07
-41.16
-43.23
-46.81
-52.13
-58.90
-66.17
-72.33
-75.46
-73.81
-66.40
-53.40
-36.15
-16.79
2.37
19.46
33.37
43.70
50.54
54.15
54.75
52.62
48.15
41.96
34.87
27.68
21.06
15.37
10.74
7.14
4.49
2.68
1.57
0.86
0.17
-0.89
-2.62
-5.07
-8.11
-11.51
-15.10
-18.92
-23.18
-28.29
-34.65
-42.42
-51.33
-60.40
-68.11
-72.51
-71.96
-65.55
-53.52
-37.25
-18.74
-0.04
17.20
31.93
43.62
51.97
56.81
58.18
56.37
52.07
46.24
39.88
33.74
28.23
23.35
18.87
14.57
10.42
6.58
3.43
1.28
0.25
0.07
0.12
-0.46
-2.46
-6.47
-12.61
-20.46
-28.99
-36.70
-41.86
-42.93
-39.05
-30.28
-17.61
-2.63
12.95
27.76
40.81
51.55
59.59
64.61
66.48
65.37
61.82
56.67
50.83
44.99
39.50
34.45
29.81
25.66
22.22
19.75
18.44
18.18
18.60
19.13
19.19
18.34
16.42
13.46
9.74
5.60
1.42
-2.60
-6.43
-10.34
-14.73
-20.01
-26.32
-33.46
-40.86
-47.84
-53.85
-58.74
-62.82
-66.80
-71.52
-77.73
-85.65
-94.73
-103.51
-109.87
-111.52
-106.75
-95.04
-77.23
-55.31
-31.75
-8.83
11.85
29.41
43.52
54.13
61.25
65.05
65.84
64.18
60.81
56.49
51.79
47.10
42.65
38.55
34.91
31.84
29.42
27.66
26.45
25.68
25.15
24.59
23.64
21.86
18.83
14.30
8.40
1.59
-5.46
-12.16
-18.20
-23.66
-28.92
-34.50
-40.86
-48.31
-56.90
-66.25
-75.48
-83.17
-87.58
-87.08
-80.67
-68.38
-51.27
-31.22
-10.38
9.36
26.65
40.75
51.42
58.72
62.90
64.35
63.58
61.10
57.42
52.93
47.97
42.78
37.66
32.95
29.00
26.07
24.26
23.46
23.37
23.52
23.40
22.52
20.58
17.54
13.76
10.00
7.21
6.33
7.86
11.70
17.14
23.04
28.16
31.52
32.56
31.19
27.64
22.37
15.89
8.73
1.39
-5.68
-12.14
-17.82
-22.79
-27.37
-31.92
-36.73
-41.69
-46.21
-49.19
-49.36
-45.66
-37.67
-25.90
-11.62
3.42
17.47
29.19
37.89
43.44
46.03
45.97
43.52
38.88
32.32
24.30
15.56
6.97
-0.60
-6.56
-10.73
-13.35
-15.02
-16.40
-18.05
-20.23
-22.89
-25.78
-28.59
-31.14
-33.44
-35.75
-38.45
-42.02
-46.88
-53.28
-61.18
-70.01
-78.57
-85.09
-87.53
-84.11
-74.01
-57.72
-36.98
-14.33
7.65
27.00
42.66
54.32
62.06
66.07
66.58
63.94
58.87
52.39
45.63
39.48
34.35
30.12
26.41
22.92
19.66
16.94
15.12
14.37
14.38
14.50
13.89
11.89
8.28
3.34
-2.24
-7.74
-12.64
-16.89
-20.89
-25.30
-30.86
-38.04
-46.84
-56.64
-66.14
-73.55
-76.97
-74.85
-66.54
-52.50
-34.23
-13.86
6.43
24.88
40.39
52.43
60.80
65.46
66.48
64.18
59.22
52.58
45.35
38.41
32.29
27.11
22.75
19.03
15.86
13.31
11.47
10.32
9.67
9.11
8.13
6.29
3.36
-0.63
-5.38
-10.47
-15.52
-20.31
-24.88
-29.58
-34.97
-41.62
-49.85
-59.35
-69.03
-77.01
-81.06
-79.28
-70.78
-56.09
-36.98
-15.93
4.62
22.87
37.85
49.27
57.21
61.84
63.32
61.89
58.01
52.30
45.52
38.40
31.48
25.13
19.52
14.78
11.04
8.40
6.92
6.50
6.77
7.18
7.07
5.85
3.21
-0.80
-5.75
-11.09
-16.33
-21.29
-26.16
-31.48
-37.86
-45.65
-54.68
-64.01
-72.03
-76.77
-76.41
-69.90
-57.37
-40.20
-20.58
-0.94
16.77
31.35
42.37
49.87
54.02
54.99
53.01
48.48
42.09
34.72
27.34
20.72
15.35
11.37
8.64
6.85
5.62
4.62
3.59
2.37
0.85
-1.06
-3.36
-6.08
-9.25
-12.95
-17.39
-22.91
-29.79
-37.99
-46.87
-55.06
-60.70
-61.93
-57.53
-47.35
-32.36
-14.31
4.78
23.04
39.09
51.96
61.08
66.19
67.35
65.02
60.00
53.35
46.11
39.14
32.93
27.60
23.06
19.13
15.75
13.01
11.15
10.32
10.43
11.04
11.35
10.51
7.89
3.33
-2.77
-9.68
-16.58
-22.91
-28.55
-33.81
-39.28
-45.64
-53.40
-62.64
-72.80
-82.60
-90.18
-93.44
-90.69
-81.14
-65.26
-44.73
-21.94
0.64
21.04
38.11
51.40
60.95
66.94
69.58
69.14
66.05
60.91
54.46
47.43
40.46
34.02
28.47
24.08
21.05
19.42
18.96
19.20
19.47
19.10
17.58
14.71
10.57
5.46
-0.21
-6.09
-12.03
-18.17
-24.97
-32.95
-42.41
-52.99
-63.42
-71.64
-75.32
-72.58
-62.76
-46.67
-26.38
-4.53
16.46
34.96
50.17
61.92
70.27
75.24
76.81
75.08
70.52
63.94
56.45
49.11
42.69
37.46
33.26
29.75
26.59
23.72
21.34
19.73
19.09
19.24
19.65
19.55
18.15
14.93
9.83
3.22
-4.23
-11.75
-18.77
-25.03
-30.74
-36.39
-42.65
-50.18
-59.35
-69.99
-81.19
-91.30
-98.10
-99.41
-93.71
-80.76
-61.68
-38.69
-14.39
8.88
29.54
46.77
60.25
69.94
75.91
78.41
77.94
75.23
71.09
66.24
61.13
56.00
50.99
46.32
42.28
39.26
37.48
36.93
37.30
37.99
38.31
37.68
35.77
32.64
28.61
24.14
19.59
15.01
10.17
4.71
-1.63
-8.80
-16.48
-24.15
-31.36
-37.89
-43.85
-49.61
-55.75
-62.79
-71.07
-80.50
-90.24
-98.75
-103.88
-103.50
-96.12
-81.53
-60.99
-36.87
-12.00
11.16
30.94
46.64
58.25
66.08
70.52
71.91
70.60
67.04
61.77
55.40
48.58
41.90
35.81
30.67
26.67
23.88
22.23
21.51
21.39
21.39
20.99
19.75
17.40
13.97
9.75
5.14
0.43
-4.30
-9.28
-14.89
-21.57
-29.55
-38.61
-47.91
-55.97
-60.92
-60.99
-55.08
-43.26
-26.80
-7.88
11.14
28.31
42.51
53.39
61.03
65.57
67.03
65.41
61.00
54.46
46.84
39.23
32.47
26.91
22.52
19.02
16.27
14.30
13.27
13.22
13.94
14.92
15.49
15.11
13.50
10.75
7.22
3.32
-0.60
-4.40
-8.13
-12.02
-16.38
-21.44
-27.31
-33.83
-40.62
-47.15
-52.92
-57.71
-61.70
-65.53
-70.10
-76.23
-84.19
-93.38
-102.17
-108.22
-109.15
-103.21
-89.99
-70.50
-46.89
-21.83
2.25
23.56
41.11
54.47
63.57
68.48
69.43
66.92
61.78
55.07
47.88
41.05
34.99
29.72
25.03
20.68
16.68
13.31
10.95
9.88
10.05
10.95
11.76
11.59
9.84
6.34
1.43
-4.23
-9.96
-15.25
-19.99
-24.41
-29.06
-34.59
-41.61
-50.38
-60.45
-70.55
-78.62
-82.27
-79.62
-69.93
-54.03
-34.00
-12.56
7.84
25.57
39.87
50.62
57.87
61.65
62.00
59.17
53.80
46.87
39.42
32.27
25.89
20.34
15.52
11.29
7.67
4.76
2.71
1.59
1.34
1.68
2.14
2.08
0.90
-1.88
-6.33
-12.01
-17.95
-22.79
-25.11
-23.81
-18.45
-9.43
2.19
14.93
27.28
38.01
46.27
51.56
53.68
52.60
48.54
41.98
33.67
24.59
15.76
8.05
2.06
-1.97
-4.13
-4.79
-4.50
-3.93
-3.62
-3.93
-4.89
-6.30
-7.94
-9.73
-11.85
-14.69
-18.59
-23.64
-29.56
-35.76
-41.66
-46.88
-51.46
-55.69
-60.05
-65.04
-71.09
-78.52
-87.33
-96.93
-105.87
-111.98
-112.83
-106.53
-92.52
-71.88
-47.07
-21.11
3.25
24.18
40.83
53.13
61.29
65.59
66.24
63.56
58.06
50.48
41.72
32.67
24.11
16.63
10.58
6.11
3.12
1.35
0.42
-0.06
-0.45
-1.00
-1.93
-3.42
-5.63
-8.73
-12.83
-18.05
-24.50
-32.31
-41.53
-51.87
-62.40
-71.48
-77.03
-77.08
-70.49
-57.40
-39.29
-18.44
2.70
22.20
38.84
52.09
61.74
67.73
70.05
68.85
64.57
57.89
49.73
41.01
32.52
24.84
18.27
12.87
8.46
4.75
1.48
-1.53
-4.29
-6.73
-8.87
-10.92
-13.34
-16.76
-21.81
-28.97
-38.35
-49.52
-61.37
-72.08
-79.41
-81.17
-75.91
-63.48
-45.15
-23.24
-0.48
20.81
39.14
53.87
64.96
72.59
76.87
77.90
75.84
71.02
64.02
55.60
46.58
37.76
29.78
23.10
17.89
14.02
11.13
8.69
6.25
3.50
0.38
-3.07
-6.81
-10.91
-15.56
-21.03
-27.63
-35.67
-45.41
-56.82
-69.27
-81.30
-90.64
-94.68
-91.34
-79.79
-60.94
-37.11
-11.31
13.65
35.76
53.96
67.89
77.57
83.14
84.89
83.32
79.24
73.58
67.16
60.56
53.99
47.42
40.86
34.50
28.85
24.48
21.78
20.68
20.46
20.00
18.15
14.17
8.04
0.39
-7.80
-15.65
-22.71
-29.07
-35.29
-42.18
-50.57
-60.99
-73.44
-86.94
-99.51
-108.32
-110.44
-103.86
-88.22
-65.18
-37.83
-9.72
16.26
38.41
56.27
70.02
79.98
86.30
89.04
88.40
84.92
79.44
72.90
66.16
59.79
54.06
49.07
44.75
41.07
38.05
35.75
34.26
33.50
33.20
32.80
31.57
28.81
24.09
17.45
9.35
0.54
-8.21
-16.36
-23.75
-30.59
-37.31
-44.42
-52.36
-61.46
-71.86
-83.32
-94.99
-105.21
-111.69
-112.04
-104.50
-88.73
-66.04
-39.09
-11.06
15.21
37.83
55.96
69.50
78.65
83.76
85.19
83.52
79.51
74.01
67.80
61.43
55.24
49.45
44.32
40.19
37.38
36.02
35.92
36.55
37.19
37.16
36.04
33.70
30.27
25.99
21.04
15.51
9.38
2.62
-4.65
-12.23
-19.82
-27.16
-34.10
-40.63
-46.89
-53.11
-59.70
-67.13
-75.81
-85.73
-96.06
-105.00
-110.04
-108.73
-99.55
-82.62
-59.72
-33.74
-7.71
16.04
36.23
52.46
64.84
73.51
78.52
79.95
78.07
73.47
66.99
59.60
52.14
45.29
39.41
34.67
31.03
28.42
26.70
25.77
25.47
25.62
25.83
25.61
24.39
21.69
17.27
11.24
4.04
-3.64
-11.13
-17.97
-24.04
-29.56
-35.02
-40.98
-47.98
-56.36
-66.17
-77.02
-87.79
-96.74
-101.63
-100.35
-91.62
-75.52
-53.65
-28.66
-3.53
19.30
38.36
53.14
63.75
70.47
73.51
73.03
69.36
63.13
55.34
47.08
39.26
32.40
26.62
21.80
17.82
14.71
12.68
11.95
12.46
13.77
15.01
15.22
13.61
9.92
4.46
-2.03
-8.75
-15.11
-20.92
-26.40
-32.00
-38.22
-45.50
-54.05
-63.69
-73.68
-82.64
-88.64
-89.62
-84.09
-71.66
-53.33
-31.19
-7.92
14.04
32.87
47.63
58.02
64.15
66.27
64.74
60.11
53.18
44.88
36.18
27.82
20.28
13.83
8.58
4.64
2.08
0.82
0.54
0.65
0.43
-0.72
-3.13
-6.74
-11.22
-16.14
-21.15
-26.12
-31.17
-36.66
-43.13
-51.10
-60.72
-71.41
-81.67
-89.20
-91.52
-86.74
-74.32
-55.38
-32.36
-8.29
14.09
32.93
47.46
57.67
63.93
66.54
65.73
61.74
55.03
46.39
36.87
27.59
19.42
12.84
7.87
4.22
1.47
-0.74
-2.62
-4.21
-5.57
-6.79
-8.13
-9.93
-12.59
-16.40
-21.62
-28.43
-36.94
-47.01
-58.02
-68.71
-77.17
-81.21
-79.03
-69.83
-54.12
-33.68
-10.99
11.42
31.46
47.86
60.07
68.04
72.03
72.42
69.73
64.59
57.75
50.01
42.12
34.68
28.07
22.47
17.92
14.41
11.98
10.68
10.42
10.83
11.19
10.60
8.34
4.30
-0.75
-5.28
-7.46
-5.80
0.27
10.22
22.61
35.63
47.58
57.19
63.69
66.71
66.27
62.64
56.40
48.40
39.57
30.80
22.75
15.90
10.53
6.78
4.68
4.04
4.41
5.14
5.50
4.97
3.40
1.02
-1.74
-4.53
-7.31
-10.37
-14.19
-19.18
-25.43
-32.70
-40.48
-48.23
-55.50
-62.06
-67.96
-73.46
-79.05
-85.37
-93.09
-102.58
-113.55
-124.68
-133.65
-137.57
-133.87
-121.17
-99.85
-71.97
-40.66
-9.17
19.90
44.94
65.26
80.76
91.57
98.04
100.70
100.28
97.70
93.90
89.73
85.96
83.23
82.02
82.61
84.90
88.20
91.30
92.75
91.36
86.57
78.49
67.74
55.14
41.57
27.76
14.31
1.66
-9.97
-20.67
-30.78
-40.87
-51.11
-60.86
-68.74
-72.98
-72.12
-65.31
-52.56
-34.55
-12.80
11.15
35.89
59.73
80.52
95.82
103.75
103.79
97.09
85.19
70.84
57.40
47.74
42.86
41.27
39.22
31.71
13.97
-17.86
-62.74
-113.80
-160.66
-193.84
-208.71
-206.93
-195.19
-182.00
