1661942304.00
64.000000
-0.00
-0.00
-0.00
-0.00
-0.00
-0.00
-0.00
-0.00
-0.00
-0.00
0.00
0.01
0.01
-0.00
-0.03
-0.05
-0.05
0.00
0.13
0.36
0.66
1.01
1.37
1.72
2.06
2.40
2.79
3.24
3.80
4.42
5.06
5.66
6.20
6.68
7.15
7.68
8.31
9.14
10.09
11.04
11.88
12.56
13.14
13.76
14.65
15.96
17.91
20.32
22.90
25.38
27.58
29.57
31.68
34.32
37.81
42.54
48.15
54.10
59.83
64.97
69.58
74.14
79.34
85.71
93.76
103.00
112.62
121.73
129.77
136.75
143.30
150.75
157.77
166.64
177.95
191.79
206.97
220.57
228.25
225.36
208.53
176.87
132.76
80.05
23.07
-34.94
-92.44
-149.16
-205.23
-260.37
-313.74
-363.87
-409.83
-450.91
-486.50
-515.74
-537.23
-549.22
-549.96
-538.37
-514.21
-478.67
-433.88
-382.45
-327.02
-269.84
-212.63
-156.66
-102.95
-52.37
-5.90
35.58
71.43
101.35
125.50
144.38
158.69
169.15
176.37
180.75
182.58
182.07
179.50
175.23
169.65
163.18
156.16
148.83
141.32
133.69
125.97
118.23
110.52
102.93
95.52
88.36
81.45
74.81
68.45
62.37
56.59
51.14
46.04
41.28
36.85
32.72
28.86
25.25
21.87
18.74
15.90
13.36
11.12
9.15
7.40
5.78
4.25
2.80
1.45
0.26
-0.69
-1.43
-2.00
-2.53
-3.15
-3.93
-4.87
-5.86
-6.75
-7.43
-7.87
-8.18
-8.56
-9.19
-10.15
-11.40
-12.72
-13.86
-14.70
-15.25
-15.67
-16.21
-17.02
-18.10
-19.41
-20.95
-22.82
-25.03
-27.24
-28.67
-28.26
-25.19
-19.28
-11.08
-1.54
8.49
18.65
28.91
39.20
48.87
56.73
61.40
62.06
58.81
52.71
45.22
37.56
30.39
23.81
17.66
11.88
6.62
2.28
-0.71
-2.05
-1.76
-0.20
2.05
4.29
6.06
7.17
7.79
8.29
8.91
9.67
10.31
10.47
9.90
8.69
7.19
5.94
5.32
5.43
5.99
6.45
6.21
4.78
1.97
-2.25
-7.53
-13.14
-17.97
-20.75
-20.32
-16.19
-8.80
0.41
9.42
16.31
19.90
19.98
17.23
12.71
7.39
1.83
-3.74
-9.25
-14.44
-18.89
-22.04
-23.51
-23.21
-21.45
-18.83
-16.03
-13.56
-11.56
-9.87
-8.25
-6.64
-5.24
-4.52
-5.00
-6.91
-10.02
-13.55
-16.64
-18.69
-19.53
-19.48
-19.14
-19.13
-19.89
-21.73
-24.51
-27.95
-31.38
-33.67
-33.32
-28.91
-19.70
-6.11
10.26
27.30
42.77
54.97
63.19
67.62
69.00
68.30
66.50
62.72
57.10
49.95
41.68
32.76
23.66
14.92
7.11
0.81
-3.62
-5.79
-5.87
-4.37
-2.03
0.49
2.64
4.09
4.60
3.96
2.13
-0.99
-5.43
-11.04
-17.47
-24.29
-31.05
-37.47
-43.47
-49.05
-54.49
-60.30
-67.09
-75.35
-85.16
-95.77
-105.48
-111.80
-112.01
-104.11
-87.54
-63.55
-34.75
-4.46
24.31
49.42
69.82
85.24
95.84
101.89
103.76
101.96
97.29
90.69
83.17
75.57
68.51
62.32
57.23
53.32
50.65
49.19
48.82
49.29
50.27
51.36
52.12
52.10
50.92
48.27
44.01
38.25
31.34
23.82
16.29
9.18
2.67
-3.39
-9.37
-15.68
-22.58
-30.05
-37.77
-45.20
-51.87
-57.50
-62.14
-66.18
-70.25
-75.07
-81.33
-89.38
-99.01
-109.21
-118.09
-123.16
-121.99
-112.94
-95.82
-72.07
-44.37
-15.87
10.63
33.27
51.14
64.09
72.35
76.27
76.32
73.09
67.35
60.00
51.93
43.93
36.59
30.36
25.54
22.31
20.74
20.75
22.04
24.15
26.50
28.49
29.60
29.52
28.10
25.44
21.77
17.34
12.35
6.86
0.85
-5.69
-12.66
-19.83
-26.88
-33.46
-39.38
-44.69
-49.72
-55.01
-61.13
-68.40
-76.51
-84.39
-90.25
-91.94
-87.66
-76.54
-59.09
-37.09
-13.07
10.41
31.35
48.56
61.62
70.51
75.39
76.42
73.92
68.42
60.79
52.08
43.31
35.25
28.31
22.65
18.28
15.21
13.46
12.97
13.51
14.65
15.76
16.19
15.34
12.81
8.48
2.53
-4.53
-12.02
-19.24
-25.77
-31.60
-37.18
-43.29
-50.82
-60.37
-71.92
-84.56
-96.49
-105.20
-108.19
-103.68
-91.21
-71.89
-47.99
-22.26
2.83
25.48
44.71
60.02
71.17
78.05
80.69
79.40
74.84
67.99
59.90
51.54
43.61
36.52
30.42
25.32
21.23
18.18
16.24
15.41
15.49
15.99
16.14
15.11
12.27
7.41
0.86
-6.67
-14.34
-21.51
-27.93
-33.83
-39.79
-46.56
-54.87
-65.15
-77.28
-90.31
-102.42
-111.10
-113.74
-108.44
-94.62
-73.36
-47.10
-18.92
8.29
32.40
52.27
67.55
78.37
85.01
87.79
87.06
83.31
77.22
69.64
61.45
53.50
46.42
40.60
36.14
32.94
30.76
29.33
28.41
27.86
27.54
27.27
26.72
25.43
22.87
18.63
12.64
5.19
-3.14
-11.68
-19.89
-27.56
-34.75
-41.77
-49.03
-56.99
-66.07
-76.55
-88.21
-100.10
-110.44
-116.82
-116.83
-108.80
-92.46
-69.06
-41.08
-11.53
16.80
41.82
62.28
77.65
87.85
93.14
94.03
91.24
85.69
78.40
70.38
62.42
55.09
48.70
43.36
39.15
36.21
34.68
34.68
36.10
38.53
41.24
43.27
43.75
42.15
38.45
33.10
26.84
20.38
14.10
8.02
1.79
-4.96
-12.46
-20.62
-29.06
-37.27
-44.82
-51.54
-57.54
-63.23
-69.25
-76.31
-85.02
-95.41
-106.61
-116.65
-122.78
-122.23
-113.18
-95.52
-70.92
-42.42
-13.35
13.52
36.53
55.03
69.04
78.76
84.37
86.03
84.03
78.94
71.57
62.88
53.83
45.27
37.81
31.84
27.50
24.74
23.34
23.01
23.44
24.28
25.20
25.83
25.82
24.81
22.49
18.70
13.48
7.05
-0.16
-7.68
-15.10
-22.14
-28.74
-35.04
-41.35
-48.11
-55.84
-64.96
-75.47
-86.62
-96.78
-103.61
-104.66
-98.18
-83.82
-62.77
-37.45
-10.78
14.67
37.07
55.42
69.31
78.54
83.05
82.98
78.90
71.77
62.90
53.51
44.54
36.43
29.27
22.95
17.43
12.82
9.34
7.22
6.47
6.83
7.73
8.37
7.92
5.74
1.59
-4.26
-11.16
-18.26
-24.96
-31.03
-36.78
-42.85
-50.06
-59.07
-70.12
-82.78
-95.77
-107.04
-114.00
-114.27
-106.36
-90.23
-67.42
-40.59
-12.78
13.40
36.20
54.72
68.63
77.90
82.62
83.03
79.68
73.46
65.47
56.81
48.32
40.49
33.48
27.28
21.92
17.56
14.45
12.81
12.63
13.52
14.70
15.20
14.16
11.11
6.12
-0.24
-7.16
-13.95
-20.33
-26.43
-32.75
-39.93
-48.53
-58.88
-70.90
-83.89
-96.34
-106.00
-110.27
-106.98
-95.13
-75.41
-50.03
-22.04
5.56
30.56
51.68
68.36
80.36
87.59
90.09
88.28
83.06
75.66
67.31
58.95
51.07
43.77
37.03
30.89
25.58
21.43
18.76
17.64
17.79
18.58
19.13
18.61
16.42
12.41
6.87
0.37
-6.46
-13.21
-19.80
-26.55
-34.01
-42.82
-53.42
-65.78
-79.06
-91.52
-100.71
-104.06
-99.64
-86.80
-66.52
-41.10
-13.48
13.48
37.61
57.56
72.71
82.82
87.94
88.34
84.64
77.80
69.05
59.56
50.23
41.51
33.52
26.29
19.97
14.92
11.57
10.14
10.42
11.73
13.08
13.49
12.30
9.33
4.81
-0.77
-6.83
-12.90
-18.76
-24.49
-30.54
-37.59
-46.31
-56.97
-69.02
-80.91
-90.28
-94.50
-91.53
-80.57
-62.37
-39.02
-13.27
12.17
35.20
54.48
69.36
79.53
84.92
85.66
82.17
75.33
66.35
56.54
47.01
38.44
30.99
24.58
19.09
14.61
11.43
9.80
9.66
10.45
11.19
10.86
8.74
4.73
-0.72
-6.80
-12.85
-18.58
-24.18
-30.18
-37.25
-45.99
-56.74
-69.32
-82.77
-95.22
-104.05
-106.57
-100.85
-86.46
-64.76
-38.41
-10.60
15.88
39.14
58.16
72.55
82.17
87.04
87.45
84.03
77.73
69.69
60.87
51.97
43.38
35.28
27.87
21.43
16.30
12.81
11.06
10.85
11.56
12.29
12.06
10.13
6.25
0.69
-5.86
-12.63
-19.08
-25.13
-31.16
-37.93
-46.24
-56.60
-68.82
-81.74
-93.23
-100.53
-101.07
-93.26
-77.07
-54.20
-27.46
-0.01
25.54
47.49
65.04
77.97
86.21
89.78
88.90
84.21
76.79
67.94
58.86
50.34
42.64
35.67
29.29
23.59
18.89
15.63
14.03
13.94
14.74
15.51
15.31
13.45
9.69
4.30
-2.10
-8.75
-15.10
-21.00
-26.78
-33.10
-40.76
-50.32
-61.82
-74.53
-86.82
-96.39
-100.72
-97.77
-86.68
-68.15
-44.28
-18.00
7.82
30.99
50.30
65.32
76.02
82.41
84.48
82.38
76.66
68.38
58.87
49.47
41.05
33.97
28.07
23.07
18.79
15.30
12.88
11.74
11.80
12.58
13.26
12.95
11.00
7.21
1.84
-4.48
-11.04
-17.31
-23.07
-28.48
-33.97
-40.14
-47.59
-56.78
-67.73
-79.69
-91.02
-99.32
-102.05
-97.33
-84.63
-65.07
-41.03
-15.37
9.32
31.28
49.48
63.40
72.67
77.09
76.77
72.35
65.02
56.22
47.21
38.75
31.05
24.02
17.60
12.00
7.70
5.17
4.65
5.84
7.97
9.94
10.64
9.33
5.80
0.45
-5.94
-12.47
-18.52
-23.98
-29.21
-34.93
-41.96
-50.90
-61.80
-73.90
-85.54
-94.33
-97.63
-93.39
-80.85
-60.94
-36.05
-9.34
16.19
38.35
56.04
68.99
77.39
81.51
81.69
78.37
72.28
64.38
55.65
46.86
38.46
30.58
23.25
16.64
11.14
7.23
5.28
5.21
6.41
7.83
8.30
6.92
3.35
-2.14
-8.79
-15.73
-22.31
-28.28
-33.89
-39.73
-46.59
-55.18
-65.86
-78.27
-91.07
-101.98
-108.17
-107.06
-97.21
-78.90
-54.16
-26.12
1.92
27.33
48.53
64.98
76.65
83.68
86.24
84.63
79.46
71.72
62.59
53.23
44.43
36.57
29.70
23.75
18.75
14.92
12.55
11.75
12.30
13.50
14.37
13.91
11.47
6.99
0.98
-5.72
-12.31
-18.34
-23.86
-29.34
-35.47
-42.99
-52.41
-63.75
-76.24
-88.17
-97.02
-100.08
-95.24
-81.81
-60.87
-34.94
-7.25
19.20
42.27
60.79
74.38
83.07
87.07
86.72
82.60
75.59
66.80
57.36
48.19
39.82
32.38
25.74
19.75
14.48
10.28
7.61
6.73
7.45
8.99
10.17
9.83
7.29
2.63
-3.48
-10.01
-16.13
-21.50
-26.37
-31.47
-37.71
-45.80
-56.05
-68.05
-80.53
-91.44
-98.23
-98.53
-90.86
-75.23
-53.26
-27.71
-1.69
22.15
42.06
57.24
67.54
73.11
74.26
71.48
65.44
57.09
47.44
37.45
27.88
19.22
11.81
5.85
1.48
-1.21
-2.31
-2.07
-1.01
0.19
0.84
0.40
-1.39
-4.41
-8.28
-12.57
-16.99
-21.61
-26.82
-33.30
-41.72
-52.31
-64.48
-76.52
-85.81
-89.42
-85.08
-72.02
-51.32
-25.59
1.88
28.10
51.00
69.55
83.48
92.84
97.77
98.51
95.49
89.50
81.54
72.72
63.99
56.03
49.22
43.70
39.48
36.60
35.10
34.97
36.12
38.23
40.78
43.12
44.73
45.31
44.92
43.86
42.50
41.09
39.65
38.07
36.18
33.89
31.19
28.16
24.87
21.39
17.79
14.21
10.79
7.66
4.86
2.24
-0.43
-3.36
-6.58
-9.92
-13.06
-15.73
-17.85
-19.56
-21.21
-23.15
-25.61
-28.63
-32.06
-35.67
-39.21
-42.53
-45.69
-48.94
-52.72
-57.46
-63.39
-70.39
-77.92
-85.26
-91.81
-97.36
-102.17
-106.83
-112.17
-119.01
-127.99
-139.26
-152.02
-164.24
-172.68
-173.68
-164.29
-143.50
-112.75
-75.54
-36.30
0.93
33.42
59.82
79.80
93.44
100.95
102.78
99.79
93.33
84.91
75.80
66.71
57.85
49.10
40.46
32.26
25.13
19.75
16.54
15.43
15.76
16.57
16.83
15.79
13.17
9.13
4.15
-1.29
-6.86
-12.59
-18.90
-26.44
-35.88
-47.45
-60.51
-73.34
-83.23
-87.25
-83.12
-70.14
-49.52
-23.98
3.15
28.93
51.39
69.63
83.46
92.92
98.09
99.14
96.52
91.01
83.65
75.43
67.13
59.27
52.18
46.13
41.41
38.29
36.91
37.20
38.86
41.41
44.35
47.16
49.42
50.79
51.09
50.27
48.49
46.02
43.15
40.09
36.90
33.45
29.55
25.12
20.22
15.10
10.04
5.25
0.78
-3.49
-7.64
-11.63
-15.20
-17.97
-19.68
-20.32
-20.22
-19.99
-20.28
-21.50
-23.73
-26.70
-29.93
-33.02
-35.82
-38.51
-41.54
-45.44
-50.58
-56.94
-64.19
-71.75
-79.02
-85.59
-91.38
-96.68
-102.17
-108.72
-117.27
-128.39
-141.76
-155.78
-167.48
-173.11
-169.25
-154.00
-127.81
-93.42
-55.05
-17.07
17.06
45.35
67.14
82.59
92.09
96.15
95.33
90.46
82.61
72.92
62.33
51.50
40.80
30.48
20.85
12.29
5.22
-0.07
-3.60
-5.65
-6.76
-7.56
-8.64
-10.48
-13.40
-17.54
-22.93
-29.59
-37.68
-47.51
-59.41
-73.32
-88.29
-102.26
-112.36
-115.67
-110.26
-95.92
-74.29
-48.23
-20.87
5.34
28.95
49.41
66.58
80.28
90.26
96.34
98.64
97.73
94.46
89.70
84.20
78.46
72.82
67.48
62.60
58.19
54.13
50.22
46.27
42.20
37.98
33.64
29.08
24.13
18.48
11.83
3.87
-5.72
-17.17
-30.43
-44.84
-58.82
-69.98
-75.57
-73.38
-62.49
-43.74
-19.43
7.35
33.59
57.00
76.19
90.54
99.92
104.50
104.70
101.16
94.73
86.31
76.68
66.46
56.16
46.21
37.11
29.34
23.30
19.19
16.85
15.75
15.13
14.16
12.20
8.95
4.53
-0.67
-6.19
-11.76
-17.46
-23.73
-31.24
-40.59
-51.98
-64.77
-77.39
-87.41
-92.15
-89.42
-78.32
-59.58
-35.43
-8.88
17.10
40.29
59.35
73.73
83.26
87.98
88.08
84.08
76.90
67.76
57.83
48.06
38.97
30.77
23.52
17.38
12.58
9.40
7.88
7.66
8.03
8.07
6.95
4.25
0.02
-5.27
-10.95
-16.48
-21.67
-26.75
-32.31
-39.07
-47.69
-58.38
-70.65
-83.05
-93.28
-98.65
-96.82
-86.61
-68.45
-44.33
-17.15
10.09
35.01
56.07
72.53
84.10
90.75
92.65
90.26
84.42
76.27
67.02
57.72
49.05
41.34
34.63
28.90
24.18
20.61
18.33
17.35
17.34
17.67
17.47
15.90
12.43
7.07
0.28
-7.19
-14.59
-21.43
-27.67
-33.71
-40.28
-48.21
-58.18
-70.37
-84.05
-97.45
-107.92
-112.53
-108.95
-96.33
-75.65
-49.46
-21.05
6.52
31.11
51.72
68.08
80.25
88.21
91.90
91.38
87.13
80.09
71.46
62.46
54.01
46.66
40.59
35.76
32.00
29.20
27.25
26.08
25.56
25.48
25.43
24.87
23.19
19.86
14.67
7.83
-0.11
-8.44
-16.58
-24.23
-31.41
-38.35
-45.37
-52.75
-60.87
-70.06
-80.45
-91.58
-102.07
-109.67
-111.74
-106.15
-92.11
-70.60
-44.06
-15.60
11.88
36.30
56.56
72.26
83.33
89.82
91.92
90.05
85.00
77.82
69.63
61.34
53.56
46.56
40.43
35.29
31.37
28.97
28.23
28.97
30.53
31.98
32.40
31.15
28.15
23.77
18.67
13.43
8.35
3.40
-1.73
-7.38
-13.77
-20.90
-28.52
-36.24
-43.67
-50.54
-56.84
-62.85
-69.12
-76.27
-84.75
-94.42
-104.24
-112.29
-116.10
-113.38
-102.81
-84.61
-60.51
-33.25
-5.86
19.14
40.14
56.39
67.80
74.57
77.06
75.71
71.14
64.14
55.61
46.46
37.53
29.46
22.70
17.51
13.99
12.09
11.60
12.14
13.22
14.31
14.95
14.81
13.71
11.56
8.31
3.96
-1.44
-7.70
-14.46
-21.33
-27.92
-34.05
-39.77
-45.35
-51.20
-57.77
-65.42
-74.23
-83.83
-93.16
-100.52
-103.83
-101.15
-91.35
-74.53
-52.14
-26.55
-0.43
23.83
44.58
60.85
72.28
78.78
80.54
78.01
71.95
63.48
53.83
44.18
35.39
27.88
21.73
16.84
13.05
10.30
8.61
7.98
8.28
9.12
9.91
9.91
8.43
5.05
-0.22
-6.99
-14.51
-22.02
-28.98
-35.28
-41.18
-47.27
-54.21
-62.61
-72.81
-84.63
-97.10
-108.36
-115.83
-116.84
-109.52
-93.49
-70.16
-42.27
-13.09
14.51
38.61
58.30
73.31
83.64
89.33
90.51
87.57
81.33
72.92
63.56
54.34
46.00
38.92
33.14
28.58
25.09
22.58
21.03
20.42
20.63
21.37
22.08
22.12
20.79
17.59
12.41
5.50
-2.56
-11.05
-19.31
-26.94
-33.85
-40.32
-46.87
-54.17
-62.87
-73.32
-85.26
-97.53
-108.07
-114.20
-113.40
-104.05
-86.10
-61.17
-32.12
-2.21
25.72
49.77
69.02
83.24
92.56
97.18
97.40
93.74
87.01
78.24
68.55
58.93
50.09
42.41
36.00
30.83
26.83
24.01
22.38
21.88
22.26
23.02
23.45
22.82
20.57
16.49
10.78
3.91
-3.51
-10.95
-18.07
-24.80
-31.24
-37.71
-44.66
-52.65
-62.12
-73.18
-85.21
-96.70
-105.35
-108.57
-104.31
-91.73
-71.68
-46.35
-18.70
8.41
32.84
53.28
69.09
79.94
85.73
86.52
82.80
75.49
65.89
55.40
45.22
36.11
28.37
21.99
16.77
12.56
9.34
7.15
6.06
5.90
6.25
6.38
5.51
3.02
-1.23
-6.87
-13.10
-19.08
-24.30
-28.73
-32.94
-37.79
-44.15
-52.58
-63.05
-74.78
-86.22
-95.19
-99.37
-96.76
-86.37
-68.52
-44.87
-18.00
9.22
34.30
55.47
71.78
82.86
88.79
89.92
86.89
80.59
72.08
62.46
52.68
43.37
34.87
27.35
20.93
15.77
12.08
9.99
9.33
9.63
10.12
9.89
8.18
4.60
-0.78
-7.50
-14.90
-22.35
-29.52
-36.48
-43.66
-51.77
-61.51
-73.13
-86.08
-98.76
-108.66
-112.98
-109.44
-97.12
-76.82
-50.85
-22.26
5.99
31.65
53.39
70.56
82.88
90.25
92.75
90.77
85.14
77.04
67.73
58.29
49.43
41.46
34.42
28.34
23.35
19.70
17.58
16.99
17.48
18.25
18.38
17.02
13.78
8.76
2.47
-4.45
-11.44
-18.23
-24.95
-32.10
-40.38
-50.44
-62.45
-75.65
-88.17
-97.35
-100.39
-95.27
-81.55
-60.48
-34.62
-7.01
19.65
43.45
63.31
78.72
89.42
95.26
96.32
93.03
86.28
77.31
67.49
58.00
49.54
42.33
36.20
30.93
26.40
22.74
20.25
19.09
19.06
19.59
19.78
18.74
15.86
11.04
4.61
-2.77
-10.40
-17.74
-24.53
-30.82
-37.00
-43.67
-51.52
-61.11
-72.46
-84.73
-96.13
-104.13
-106.12
-100.22
-85.94
-64.40
-38.03
-9.86
17.26
41.15
60.52
74.83
84.06
88.56
88.94
85.98
80.61
73.77
66.28
58.82
51.84
45.71
40.79
37.41
35.89
36.41
38.87
42.87
47.68
52.46
56.36
58.78
59.50
58.73
57.01
55.00
53.27
52.06
51.18
50.06
47.99
44.34
38.90
32.02
24.57
17.53
11.61
7.07
3.62
0.77
-2.03
-4.95
-7.74
-9.81
-10.58
-9.82
-7.74
-4.84
-1.63
1.31
3.80
6.09
8.68
12.05
16.32
21.21
26.10
30.32
32.62
32.21
29.11
24.31
19.24
15.09
12.38
10.84
9.50
5.68
-3.01
-17.57
-36.99
-58.96
-81.06
-101.69
-120.41
-137.80
-157.29
-181.91
-212.45
-246.32
-278.50
-303.46
-316.68
-315.55
-299.57
-273.31
-242.83
-213.79
-190.09
