1661941502.00
64.000000
-0.00
-0.00
-0.00
-0.00
-0.00
-0.00
-0.00
-0.00
-0.00
-0.00
0.00
0.01
0.01
-0.00
-0.03
-0.05
-0.05
0.00
0.13
0.36
0.66
1.01
1.37
1.72
2.06
2.40
2.79
3.24
3.80
4.42
5.06
5.66
6.20
6.68
7.15
7.68
8.31
9.14
10.09
11.04
11.88
12.56
13.14
13.76
14.65
15.96
17.91
20.32
22.90
25.38
27.58
29.57
31.68
34.32
37.81
42.54
48.15
54.10
59.83
64.97
69.58
74.14
79.34
85.71
93.76
103.00
112.62
121.73
129.77
136.75
143.30
150.75
157.77
166.64
177.95
191.79
206.97
220.57
228.25
225.36
208.53
176.87
132.76
80.05
23.07
-34.94
-92.44
-149.16
-205.23
-260.37
-313.74
-363.87
-409.83
-450.91
-486.50
-515.74
-537.23
-549.22
-549.96
-538.37
-514.21
-478.67
-433.88
-382.45
-327.02
-269.84
-212.63
-156.66
-102.95
-52.37
-5.90
35.58
71.43
101.35
125.50
144.38
158.69
169.15
176.37
180.75
182.57
182.07
179.51
175.23
169.65
163.18
156.15
148.81
141.30
133.69
126.02
118.33
110.69
103.16
95.80
88.68
81.83
75.25
68.95
62.95
57.25
51.86
46.78
42.03
37.59
33.45
29.61
26.07
22.81
19.83
17.11
14.67
12.48
10.54
8.83
7.35
6.07
4.97
4.05
3.27
2.62
2.09
1.65
1.30
1.01
0.79
0.61
0.47
0.37
0.29
0.23
0.18
0.16
0.14
0.14
0.14
0.15
0.17
0.20
0.23
0.27
0.30
0.35
0.39
0.43
0.48
0.52
0.57
0.63
0.70
0.77
0.85
0.90
0.93
0.93
0.91
0.91
0.95
1.04
1.19
1.37
1.56
1.72
1.86
2.00
2.17
2.41
2.75
3.16
3.59
3.98
4.27
4.46
4.60
4.82
5.22
5.86
6.70
7.60
8.40
8.96
9.24
9.37
9.59
10.15
11.17
12.57
14.06
15.26
15.83
15.69
15.00
14.15
13.50
13.17
12.91
12.11
10.04
6.18
0.53
-6.38
-13.56
-20.05
-25.21
-29.06
-32.13
-35.19
-38.89
-43.53
-49.09
-55.12
-60.70
-64.46
-64.68
-59.95
-49.85
-35.50
-19.40
-4.59
6.51
13.02
15.68
16.09
15.68
14.93
13.29
9.89
4.34
-2.64
-9.19
-12.79
-11.17
-3.11
10.90
28.54
46.27
60.41
68.33
69.15
63.79
54.25
42.59
30.22
17.72
5.28
-6.66
-17.20
-25.17
-29.62
-30.37
-28.17
-24.50
-20.89
-18.43
-17.35
-17.08
-16.73
-15.56
-13.35
-10.51
-7.97
-6.79
-7.89
-11.91
-18.80
-28.07
-38.58
-48.27
-54.38
-53.85
-44.33
-25.06
2.47
34.90
67.81
97.01
119.60
134.20
140.75
139.85
132.29
118.98
101.10
80.30
58.69
38.46
21.32
8.03
-1.65
-8.67
-14.20
-18.98
-23.15
-26.28
-27.69
-27.03
-24.61
-21.52
-19.38
-19.83
-23.92
-31.66
-42.01
-53.15
-63.24
-71.14
-76.72
-80.94
-85.31
-91.39
-100.32
-112.48
-127.23
-142.59
-155.18
-160.60
-154.46
-133.87
-98.77
-52.46
-0.86
49.22
92.03
124.10
144.52
154.21
154.89
148.34
136.20
120.13
101.97
83.56
66.40
51.32
38.41
27.28
17.57
9.28
2.79
-1.44
-3.29
-3.26
-2.44
-2.12
-3.34
-6.55
-11.54
-17.68
-24.27
-30.86
-37.38
-44.18
-52.04
-61.82
-74.06
-88.33
-102.66
-113.56
-116.80
-108.78
-88.03
-56.01
-16.85
23.88
60.85
90.35
110.70
122.00
125.29
121.90
113.10
100.13
84.33
67.10
49.87
33.81
19.77
8.21
-0.69
-6.98
-10.98
-13.26
-14.58
-15.78
-17.51
-20.10
-23.47
-27.34
-31.43
-35.70
-40.42
-46.21
-53.80
-63.92
-76.89
-92.23
-108.08
-121.19
-127.38
-122.72
-105.04
-74.99
-36.18
5.78
45.06
77.15
99.83
112.97
117.75
115.62
107.83
95.44
79.57
61.70
43.60
27.07
13.44
3.34
-3.43
-7.61
-10.21
-12.11
-13.85
-15.56
-17.13
-18.42
-19.46
-20.65
-22.63
-26.17
-32.01
-40.73
-52.78
-68.29
-86.74
-106.34
-123.79
-134.63
-134.33
-119.90
-91.26
-51.54
-6.31
38.17
76.70
106.28
126.11
136.89
139.87
136.30
127.23
113.76
97.25
79.30
61.57
45.42
31.78
20.98
12.94
7.29
3.51
1.02
-0.77
-2.45
-4.55
-7.48
-11.50
-16.66
-22.84
-29.78
-37.26
-45.33
-54.47
-65.61
-79.63
-96.56
-114.63
-130.05
-137.64
-132.54
-112.20
-77.52
-32.90
15.31
60.84
99.15
128.13
147.55
158.14
160.78
156.35
145.93
131.20
114.37
97.78
83.30
71.92
63.71
58.17
54.64
52.66
52.10
53.02
55.43
58.98
62.95
66.35
68.20
67.84
65.20
60.70
55.16
49.41
44.09
39.44
35.36
31.49
27.45
22.91
17.83
12.31
6.70
1.39
-3.28
-7.17
-10.41
-13.27
-16.11
-19.16
-22.51
-26.07
-29.64
-32.99
-35.92
-38.39
-40.54
-42.70
-45.29
-48.59
-52.65
-57.14
-61.56
-65.46
-68.76
-71.82
-75.34
-80.05
-86.30
-93.90
-102.07
-109.81
-116.21
-120.87
-124.17
-127.22
-131.74
-139.45
-151.38
-166.98
-183.63
-196.74
-200.76
-190.69
-163.83
-120.92
-66.20
-6.37
51.22
100.35
137.08
160.05
169.96
168.81
159.12
143.52
124.52
104.45
85.26
68.36
54.53
43.85
35.97
30.38
26.69
24.68
24.11
24.55
25.26
25.32
23.89
20.50
15.21
8.54
1.19
-6.29
-13.69
-21.26
-29.63
-39.62
-51.72
-65.69
-80.05
-92.02
-98.05
-94.77
-80.18
-54.57
-20.64
17.18
53.93
85.39
108.83
123.23
128.89
126.86
118.59
105.72
89.98
73.12
56.74
42.05
29.74
19.97
12.56
7.20
3.64
1.70
1.17
1.68
2.58
3.05
2.25
-0.33
-4.70
-10.18
-15.43
-18.80
-18.68
-14.03
-4.76
8.12
22.71
36.67
47.80
54.61
56.46
53.54
46.62
36.71
24.96
12.49
0.37
-10.60
-20.02
-27.98
-34.92
-41.34
-47.55
-53.52
-59.03
-63.92
-68.38
-73.00
-78.58
-85.81
-95.02
-106.10
-118.56
-131.74
-144.97
-157.73
-169.84
-181.66
-194.15
-208.85
-227.31
-250.05
-275.70
-300.58
-319.28
-326.19
-317.39
-292.13
-253.22
-206.33
-158.24
-115.20
-81.57
-59.47
-49.00
-48.93
-57.24
-71.67
-89.86
-109.46
-128.27
-144.32
-156.11
-162.84
-164.60
-162.22
-157.09
-150.60
-143.70
-136.59
-128.82
-119.49
-107.78
-93.34
-76.30
-57.22
-36.94
-16.69
1.91
17.06
27.19
31.56
30.79
26.95
23.01
22.06
26.45
37.31
54.62
77.63
105.34
136.82
171.04
206.47
240.68
270.36
291.85
302.25
300.37
287.43
266.76
242.81
219.57
199.62
183.82
171.73
162.48
155.55
150.87
148.70
149.09
151.66
155.57
159.78
163.32
165.57
166.14
164.54
159.91
151.08
137.14
118.36
96.86
76.59
62.38
58.36
66.41
85.45
111.91
140.92
168.01
190.10
205.82
215.05
218.12
215.38
207.04
193.56
176.10
156.65
137.84
122.36
112.32
108.75
111.51
119.54
131.27
145.01
159.15
172.24
182.93
190.07
192.85
190.94
184.52
174.07
159.96
142.16
120.10
93.07
60.86
24.39
-14.05
-51.14
-83.27
-107.52
-122.35
-127.79
-125.48
-118.18
-109.41
-103.07
-102.90
-111.84
-131.31
-160.62
-196.81
-235.03
-269.33
-293.95
-304.39
-298.43
-276.57
-241.97
-199.70
-155.54
-114.78
-81.13
-56.28
-40.11
-31.20
-27.59
-27.36
-29.02
-31.64
-34.88
-38.88
-44.21
-51.77
-62.50
-76.96
-94.72
-113.72
-130.21
-139.41
-136.80
-119.75
-88.67
-46.97
-0.07
46.30
87.66
121.42
146.70
163.63
172.71
174.58
170.26
161.31
149.74
137.61
126.44
116.88
108.73
101.36
94.23
87.25
80.79
75.48
71.70
69.34
67.66
65.43
61.36
54.52
44.70
32.43
18.78
5.04
-7.70
-18.84
-28.44
-37.22
-46.30
-56.72
-68.79
-81.49
-92.31
-97.79
-94.59
-80.78
-56.71
-25.06
9.92
43.70
72.61
94.47
108.55
115.10
114.85
108.69
97.69
83.23
67.04
51.02
36.92
25.93
18.47
14.29
12.64
12.71
13.85
15.61
17.61
19.46
20.66
20.73
19.28
16.13
11.21
4.49
-4.01
-14.20
-25.74
-37.95
-49.91
-60.65
-69.52
-76.39
-81.74
-86.51
-91.91
-99.05
-108.66
-120.70
-134.02
-146.28
-154.17
-154.27
-144.02
-122.78
-92.20
-55.83
-18.13
16.78
45.98
68.05
82.83
90.91
93.20
90.77
84.87
76.83
68.04
59.67
52.48
46.73
42.34
39.11
36.94
35.94
36.33
38.21
41.31
44.94
48.06
49.60
48.81
45.46
39.83
32.51
24.07
14.90
5.11
-5.21
-15.87
-26.42
-36.13
-44.29
-50.32
-54.10
-55.97
-56.78
-57.77
-60.35
-65.62
-73.95
-84.43
-94.77
-101.69
-101.84
-92.93
-74.60
-48.76
-18.94
10.76
36.72
56.61
69.44
75.29
74.82
69.03
59.19
46.88
33.95
22.25
13.26
7.70
5.33
5.15
5.90
6.52
6.59
6.32
6.22
6.53
6.94
6.56
4.32
-0.44
-7.58
-16.03
-24.26
-30.80
-34.91
-36.85
-37.74
-39.23
-42.95
-50.14
-61.18
-75.35
-90.63
-103.89
-111.44
-110.05
-98.07
-76.08
-46.92
-14.81
15.88
41.78
60.98
72.94
77.93
76.53
69.50
57.91
43.32
27.62
12.76
0.23
-9.20
-15.39
-18.74
-19.80
-19.08
-17.06
-14.26
-11.38
-9.27
-8.77
-10.49
-14.55
-20.50
-27.48
-34.53
-40.99
-46.75
-52.29
-58.54
-66.54
-77.05
-90.18
-104.97
-119.28
-129.93
-133.45
-127.08
-109.79
-82.79
-49.28
-13.56
20.18
48.78
70.55
84.97
92.34
93.38
89.08
80.75
70.00
58.54
47.82
38.75
31.55
25.95
21.47
17.77
14.79
12.65
11.41
10.86
10.40
9.19
6.43
1.66
-5.03
-13.07
-21.58
-29.63
-36.63
-42.50
-47.76
-53.44
-60.68
-70.21
-81.64
-93.09
-101.34
-102.63
-93.90
-74.09
-44.65
-9.28
27.28
60.59
87.55
106.79
118.20
122.43
120.31
112.85
101.25
87.01
71.84
57.24
44.26
33.33
24.45
17.43
12.16
8.59
6.51
5.44
4.55
2.86
-0.39
-5.60
-12.62
-20.98
-30.05
-39.34
-48.52
-57.59
-66.79
-76.67
-87.95
-101.14
-116.05
-131.26
-144.09
-151.14
-149.35
-137.19
-115.29
-86.25
-53.80
-21.66
7.31
31.37
49.71
62.05
68.34
68.83
64.12
55.14
43.12
29.37
15.31
2.38
-8.05
-14.91
-17.76
-16.96
-13.56
-8.87
-3.97
0.63
4.81
8.40
10.76
10.68
6.73
-2.09
-15.94
-33.98
-54.77
-76.54
-97.38
-115.20
-127.66
-132.28
-127.11
-111.39
-86.06
-53.75
-18.10
17.07
48.55
74.10
92.38
102.74
104.94
99.22
86.42
68.20
46.93
25.55
7.16
-5.54
-10.78
-8.21
1.10
15.04
31.15
47.04
60.80
71.15
77.41
79.37
77.10
70.83
60.90
47.82
31.68
12.19
-11.01
-37.51
-65.34
-90.80
-109.07
-115.76
-108.04
-86.31
-54.12
-17.24
18.19
47.15
66.29
74.31
71.73
64.97
62.21
70.83
92.18
120.60
147.31
165.09
171.06
166.44
155.41
141.37
126.26
110.50
93.92
76.64
58.72
43.22
30.67
20.03
8.67
-6.25
-26.70
-52.66
-81.70
-109.49
-131.07
-142.75
-142.65
-131.62
-112.88
-91.02
-70.43
-54.06
-43.16
-37.51
-36.42
-38.77
-43.35
-48.84
-53.85
-56.99
-57.14
-53.68
-46.77
-37.43
-27.01
-16.95
-8.42
-2.17
1.52
2.85
2.35
0.69
-1.54
-3.67
-5.05
-5.01
-3.06
0.91
6.44
12.48
17.46
19.59
17.26
9.55
-3.21
-19.15
-34.81
-45.76
-47.69
-37.85
-16.02
15.16
50.99
86.03
115.61
136.77
148.48
151.22
146.25
135.19
119.73
101.60
82.60
64.44
48.44
35.35
25.37
18.21
13.40
10.46
8.97
8.58
8.98
9.86
10.91
11.84
12.23
11.57
9.27
4.78
-2.20
-11.64
-23.22
-36.45
-50.73
-65.28
-78.88
-89.80
-95.98
-95.59
-87.76
-73.03
-53.45
-31.98
-11.72
4.95
16.84
23.85
26.68
26.31
23.65
19.43
14.22
8.55
2.94
-2.13
-6.39
-9.76
-12.47
-14.88
-17.28
-19.74
-22.10
-24.00
-25.15
-25.51
-25.48
-25.75
-27.19
-30.53
-36.12
-43.78
-52.71
-61.55
-68.49
-71.51
-68.87
-59.56
-43.80
-23.12
-0.15
22.19
41.27
55.49
64.28
67.91
67.01
62.32
54.56
44.63
33.66
22.94
13.75
6.98
2.90
1.12
0.82
1.04
1.08
0.65
-0.15
-1.01
-1.78
-2.57
-3.92
-6.54
-11.17
-18.31
-28.08
-39.99
-52.88
-64.85
-73.53
-76.59
-72.51
-61.20
-44.20
-24.27
-4.59
12.14
24.30
31.32
33.43
31.10
24.92
15.47
3.61
-9.49
-22.43
-33.91
-43.09
-49.80
-54.49
-57.94
-60.90
-63.84
-66.91
-70.19
-73.84
-78.26
-84.03
-91.58
-101.04
-112.07
-124.01
-136.04
-147.17
-156.16
-161.45
-161.33
-154.46
-140.42
-120.22
-96.22
-71.52
-49.21
-31.57
-19.80
-13.97
-13.25
-16.08
-20.43
-23.95
-24.48
-20.51
-11.58
1.67
17.83
35.28
52.72
69.31
84.66
98.49
110.48
120.10
126.62
129.28
127.52
121.36
111.74
100.78
91.69
88.09
92.93
107.36
129.95
156.93
183.24
204.16
216.66
219.88
214.74
202.99
186.29
166.00
143.23
119.27
95.48
72.88
51.57
30.58
8.28
-16.68
-44.56
-74.07
-102.82
-128.14
-147.95
-161.32
-168.44
-170.36
-168.58
-164.73
-160.42
-157.04
-155.74
-157.37
-162.41
-170.81
-181.66
-192.94
-201.47
-203.46
-195.34
-175.00
-142.50
-100.28
-52.44
-3.70
41.76
80.94
112.04
134.30
147.53
152.04
148.63
138.77
124.54
108.50
93.25
80.96
73.01
69.68
70.28
73.44
77.59
81.26
83.37
83.22
80.42
74.84
66.55
55.87
43.23
29.13
14.02
-1.79
-17.98
-33.95
-48.56
-59.97
-65.96
-64.58
-54.91
-37.65
-15.11
9.43
32.51
51.49
64.88
72.35
74.29
71.33
64.18
53.56
40.43
26.01
11.70
-1.09
-11.27
-18.17
-21.73
-22.46
-21.34
-19.55
-18.16
-17.80
-18.58
-20.18
-22.20
-24.33
-26.57
-29.09
-32.12
-35.82
-40.35
-45.82
-52.09
-58.40
-63.10
-63.77
-57.81
-43.46
-20.62
8.89
41.86
74.61
103.99
127.88
145.17
155.47
158.92
156.24
148.94
139.33
130.17
123.94
122.15
124.92
131.15
138.98
146.57
152.58
156.41
158.04
157.82
156.06
152.90
148.18
141.51
132.43
120.52
105.64
87.99
68.32
47.86
28.37
11.91
0.44
-4.66
-3.12
3.99
14.35
24.99
33.07
36.63
34.99
28.64
18.83
6.99
-5.65
-18.23
-30.17
-41.01
-50.32
-57.73
-63.01
-66.16
-67.46
-67.41
-66.66
-65.89
-65.77
-66.85
-69.41
-73.38
-78.29
-83.47
-88.15
-91.84
-94.38
-96.09
-97.78
-100.54
-105.40
-112.73
-121.64
-129.71
-133.43
-129.34
-115.36
-91.84
-61.66
-29.29
0.68
24.87
41.72
51.26
54.29
51.81
44.63
33.62
19.97
5.26
-8.66
-20.18
-28.29
-32.84
-34.44
-34.12
-32.89
-31.45
-30.03
-28.52
-26.77
-24.88
-23.29
-22.68
-23.82
-27.25
-33.18
-41.53
-51.91
-63.47
-74.80
-83.87
-88.34
-86.20
-76.55
-60.04
-38.79
-15.76
6.19
24.95
39.36
48.89
53.30
52.43
46.38
35.87
22.49
8.39
-4.28
-14.04
-20.55
-24.53
-27.19
-29.64
-32.37
-35.18
-37.54
-38.98
-39.46
-39.45
-39.78
-41.42
-45.29
-51.98
-61.43
-72.62
-83.38
-90.55
-90.83
-81.94
-63.53
-37.56
-7.76
21.63
47.11
66.69
79.85
86.94
88.41
84.50
75.44
61.83
45.05
27.19
10.54
-3.04
-12.68
-18.57
-21.70
-23.28
-24.28
-25.17
-25.93
-26.38
-26.45
-26.37
-26.65
-27.98
-31.05
-36.54
-44.93
-56.36
-70.16
-84.53
-96.49
-102.52
-99.57
-86.31
-63.72
-34.91
-4.08
24.74
48.77
66.68
78.30
83.95
84.01
78.87
69.20
56.23
41.75
27.79
16.11
7.65
2.39
-0.56
-2.44
-4.38
-6.88
-9.82
-12.67
-14.93
-16.50
-17.80
-19.65
-22.97
-28.62
-37.18
-48.81
-62.98
-78.15
-91.64
-100.01
-99.96
-89.46
-68.74
-40.38
-8.60
22.11
48.24
67.92
80.81
87.37
88.23
83.91
74.97
62.40
47.79
33.18
20.53
11.21
5.61
3.15
2.61
2.72
2.56
1.78
0.63
-0.46
-1.19
-1.64
-2.37
-4.24
-8.12
-14.66
-24.12
-36.24
-50.04
-63.75
-74.77
-80.23
-77.61
-65.62
-44.79
-17.39
13.02
42.62
68.19
87.63
100.00
105.23
103.76
96.38
84.22
68.84
52.15
36.23
22.91
13.33
7.74
5.37
4.85
4.65
3.66
1.52
-1.44
-4.57
-7.32
-9.64
-12.12
-15.72
-21.49
-30.23
-42.25
-57.21
-73.89
-90.01
-102.39
-107.43
-102.19
-85.49
-58.66
-25.26
9.84
41.96
67.81
85.94
96.42
100.12
97.99
90.78
79.32
64.72
48.68
33.31
20.57
11.79
7.22
5.98
6.53
7.24
6.95
5.25
2.45
-0.87
-4.26
-7.70
-11.55
-16.41
-22.82
-31.18
-41.77
-54.79
-70.10
-86.77
-102.63
-114.33
-117.96
-110.36
-90.39
-59.64
-22.14
16.83
52.32
80.92
101.16
113.26
118.20
117.16
111.18
101.22
88.44
74.29
60.34
48.02
38.28
31.49
27.42
25.53
25.10
25.36
25.54
24.83
22.54
18.29
12.09
4.41
-4.00
-12.44
-20.50
-28.21
-36.14
-45.25
-56.66
-71.06
-88.04
-105.50
-119.64
-125.85
-120.21
-101.02
-69.76
-30.77
10.18
47.69
78.07
99.81
113.10
118.95
118.44
112.63
102.61
89.88
76.23
63.49
53.04
45.54
40.89
38.49
37.59
37.57
38.09
39.00
40.17
41.31
41.85
41.00
38.03
32.54
24.74
15.41
5.65
-3.54
-11.62
-18.66
-25.09
-31.35
-37.59
-43.51
-48.58
-52.31
-54.56
-55.62
-56.09
-56.66
-57.85
-59.87
-62.49
-64.93
-65.93
-63.96
-57.52
-45.64
-28.28
-6.54
17.45
40.99
61.28
75.99
83.63
83.76
76.98
64.78
49.31
32.95
17.85
5.45
-3.73
-10.02
-14.29
-17.59
-20.75
-24.28
-28.41
-33.17
-38.61
-44.82
-52.14
-61.22
-72.83
-87.44
-104.38
-121.23
-133.83
-137.30
-127.76
-104.03
-68.43
-26.16
16.41
53.79
82.63
101.96
112.35
114.91
110.63
100.30
85.01
66.48
47.06
29.41
15.78
7.50
4.53
5.60
8.55
11.12
11.65
9.47
4.99
-0.81
-6.89
-12.72
-18.38
-24.41
-31.45
-40.13
-51.05
-64.83
-81.72
-100.97
-120.13
-135.04
-140.67
-132.90
-110.22
-74.68
-31.38
13.21
53.35
85.39
108.06
121.71
127.29
125.69
117.78
104.78
88.70
72.12
57.56
46.74
40.07
36.69
35.04
33.64
31.66
29.07
26.44
24.35
22.99
21.89
20.08
16.29
9.36
-1.36
-15.68
-32.15
-48.13
-60.06
-64.39
-58.72
-42.62
-17.92
11.79
42.26
69.67
91.37
105.98
113.13
113.04
106.33
94.00
77.52
58.79
39.96
23.02
9.57
0.53
-3.99
-4.60
-2.52
0.70
3.57
4.96
4.32
1.77
-2.14
-6.65
-11.17
-15.50
-19.87
-24.77
-30.74
-38.06
-46.62
-56.01
-65.66
-75.12
-84.13
-92.72
-101.10
-109.82
-119.77
-132.01
-147.13
-164.28
-180.53
-191.03
-190.43
-174.89
-143.90
-100.81
-51.64
-3.06
39.82
74.43
100.45
118.63
129.73
134.11
132.13
124.84
114.18
102.69
92.62
85.30
80.86
78.51
77.13
75.90
74.58
73.34
72.37
71.49
69.94
66.57
60.28
50.61
37.99
23.70
9.36
-3.65
-14.78
-24.43
-33.79
-44.33
-57.27
-72.98
-90.57
-107.66
-120.71
-125.78
-119.75
-101.52
-72.58
-36.75
0.86
35.36
63.22
82.72
93.70
96.93
93.58
84.98
72.62
58.14
43.23
29.43
17.85
9.10
3.44
0.80
0.96
3.51
7.78
12.80
17.37
20.24
20.50
17.82
12.54
5.60
-1.87
-8.98
-15.31
-21.04
-26.89
-33.89
-43.09
-55.04
-69.17
-83.25
-93.49
-95.49
-85.75
-63.14
-29.67
10.00
50.14
85.72
113.60
132.68
143.30
146.29
142.58
133.13
119.31
103.02
86.43
71.46
59.36
50.51
44.61
41.06
39.30
38.95
39.75
41.36
43.21
44.49
44.23
41.64
36.24
28.13
17.97
6.84
-4.13
-14.09
-22.91
-31.19
-40.08
-50.71
-63.49
-77.55
-90.72
-99.98
-102.42
-96.19
-81.21
-59.27
-33.53
-7.76
14.72
31.65
42.12
46.43
45.58
40.82
33.37
24.28
14.50
4.96
-3.49
-10.18
-14.84
-17.70
-19.39
-20.72
-22.31
-24.43
-26.91
-29.31
-31.18
-32.25
-32.59
-32.58
-32.80
-33.91
-36.52
-41.13
-47.94
-56.62
-65.94
-73.89
-77.98
-76.13
-67.46
-52.78
-34.45
-15.61
0.84
13.03
20.34
23.10
22.07
17.99
11.48
3.15
-6.17
-15.40
-23.43
-29.39
-32.95
-34.32
-34.24
-33.63
-33.31
-33.69
-34.69
-35.87
-36.66
-36.71
-36.11
-35.35
-35.28
-36.76
-40.48
-46.63
-54.75
-63.52
-70.89
-74.46
-72.12
-62.85
-47.13
-26.95
-5.20
15.19
32.05
44.25
51.60
54.41
53.12
48.19
40.19
29.95
18.66
7.74
-1.52
-8.22
-12.16
-13.83
-14.17
-14.24
-14.83
-16.23
-18.26
-20.50
-22.61
-24.44
-26.19
-28.23
-31.11
-35.45
-41.83
-50.53
-61.17
-72.43
-82.10
-87.54
-86.45
-77.61
-61.26
-39.02
-13.29
13.23
38.11
59.30
75.22
84.86
87.90
84.84
76.88
65.67
52.93
40.09
28.16
17.80
9.35
2.82
-2.03
-5.78
-9.26
-13.31
-18.46
-24.77
-31.83
-39.00
-45.78
-52.06
-58.36
-65.57
-74.76
-86.66
-101.22
-117.30
-132.74
-144.66
-150.00
-146.28
-132.12
-107.69
-74.83
-36.77
2.47
38.79
68.71
90.00
101.79
104.49
99.41
88.42
73.58
57.01
40.83
26.98
16.98
11.54
10.28
11.78
13.98
14.94
13.53
9.77
4.66
-0.52
-4.94
-8.74
-13.10
-19.76
-30.29
-45.35
-64.11
-84.00
-100.97
-110.28
-107.81
-91.40
-61.77
-22.56
20.70
62.20
97.30
123.37
139.65
146.68
145.58
137.71
124.66
108.37
90.98
74.57
60.69
50.14
42.98
38.75
36.72
36.05
35.84
35.17
33.12
29.03
22.70
14.48
5.12
-4.49
-13.71
-22.45
-31.22
-41.13
-53.55
-69.63
-89.63
-112.24
-134.27
-150.84
-156.54
-146.95
-120.40
-78.79
-27.41
26.51
75.86
115.34
142.49
157.40
161.87
158.34
149.12
136.15
120.99
105.06
89.69
76.02
64.87
56.57
51.00
47.66
45.84
44.66
43.20
40.57
36.04
29.25
20.27
9.63
-1.87
-13.44
-24.66
-35.61
-47.01
-60.04
-75.93
-95.32
-117.51
-139.91
-157.97
-166.17
-159.63
-136.03
-96.73
-46.74
6.79
56.69
97.72
127.43
145.78
154.17
154.32
147.84
136.25
121.26
104.86
89.00
75.17
64.03
55.43
48.69
43.03
37.85
32.82
27.76
22.42
16.33
8.88
-0.47
-11.93
-25.19
-39.47
-53.71
-66.94
-78.64
-88.82
-98.11
-107.63
-118.87
-133.29
-151.66
-173.30
-195.49
-213.65
-222.40
-217.25
-195.98
-159.24
-110.01
-52.52
8.73
69.36
125.00
171.28
204.27
221.54
223.08
211.63
191.88
168.95
146.95
128.16
113.15
101.49
92.50
85.74
80.98
77.96
76.10
74.46
71.87
67.20
59.72
49.40
36.83
23.16
9.70
-2.48
-12.90
-21.75
-29.82
-38.24
-48.19
-60.59
-75.82
-93.27
-110.98
-125.51
-132.50
-127.82
-109.08
-76.87
-34.83
11.24
55.14
91.91
118.71
134.75
140.67
137.75
127.62
112.23
93.86
74.98
57.82
43.80
33.38
26.11
21.19
17.79
15.49
14.13
13.57
13.45
13.00
11.18
7.03
0.05
-9.49
-20.60
-31.91
-42.17
-50.74
-57.86
-64.52
-72.26
-82.64
-96.62
-113.87
-132.20
-147.61
-155.05
-149.91
-129.81
-95.73
-52.02
-5.03
38.83
74.85
100.80
116.63
123.43
122.55
115.27
103.00
87.54
71.07
55.74
43.06
33.59
27.01
22.51
19.39
17.29
16.18
16.07
16.66
17.20
16.67
14.11
9.04
1.65
-7.26
-16.67
-25.70
-34.05
-42.14
-50.96
-61.80
-75.70
-92.81
-111.74
-129.29
-140.83
-141.51
-127.93
-99.61
-59.60
-13.68
31.37
69.83
98.39
116.32
124.70
125.29
119.74
109.48
95.98
81.05
66.58
54.20
44.57
37.37
31.55
26.04
20.33
14.74
10.11
7.14
5.85
5.24
3.73
-0.30
-7.68
-18.11
-30.29
-42.43
-53.11
-61.75
-68.80
-75.58
-83.70
-94.54
-108.78
-125.82
-143.46
-157.91
-164.43
-158.70
-138.42
-104.53
-61.32
-15.28
26.94
60.33
82.67
94.09
96.19
90.85
79.73
64.38
46.69
29.00
13.73
2.59
-3.87
-6.44
-6.57
-5.63
-4.24
-2.20
1.02
5.62
10.99
15.75
18.30
17.46
13.03
5.79
-2.82
-11.37
-18.90
-25.23
-30.89
-36.94
-44.65
-55.22
-69.18
-85.79
-102.61
-115.53
-119.76
-111.35
-88.84
-54.10
-11.98
31.22
69.63
99.32
118.73
128.23
129.14
123.07
111.63
96.51
79.70
63.21
48.79
37.44
29.30
23.87
20.45
18.47
17.65
17.90
18.99
20.39
21.23
20.53
17.51
11.92
4.16
-4.84
-13.90
-22.10
-29.10
-35.35
-41.99
-50.49
-62.04
-76.79
-93.29
-108.35
-117.73
-117.30
-104.56
-79.63
-45.50
-7.16
29.81
60.83
83.14
95.99
100.17
97.19
88.84
76.91
63.14
49.15
36.29
25.45
16.89
10.43
5.70
2.40
0.49
0.00
0.85
2.51
4.08
4.45
2.76
-1.26
-7.16
-14.09
-21.14
-27.84
-34.33
-41.34
-49.92
-61.08
-75.36
-92.21
-109.60
-123.93
-130.64
-125.52
-106.26
-73.65
-31.70
13.43
55.29
88.92
111.83
123.91
126.57
121.77
111.48
97.53
81.80
66.14
52.16
40.77
31.96
25.06
19.17
13.73
8.78
4.84
2.39
1.35
0.97
-0.04
-2.85
-8.02
-15.17
-23.24
-31.02
-37.74
-43.48
-49.21
-56.44
-66.62
-80.60
-97.98
-116.71
-133.14
-142.53
-140.27
-123.38
-91.88
-49.18
-1.34
44.66
82.96
110.13
125.63
130.97
128.60
120.81
109.42
95.86
81.55
68.07
56.90
48.99
44.43
42.43
41.76
41.28
40.37
39.06
37.79
37.09
37.11
37.64
38.03
37.59
35.85
32.76
28.76
24.60
21.01
18.41
16.64
15.08
12.99
9.86
5.73
1.19
-2.96
-6.10
-8.07
-9.17
-10.00
-10.99
-12.29
-13.75
-15.04
-15.95
-16.49
-16.88
-17.39
-18.23
-19.40
-20.74
-22.02
-23.07
-23.85
-24.48
-25.22
-26.38
-28.27
-31.21
-35.37
-40.75
-47.05
-53.71
-59.99
-65.28
-69.32
-72.45
-75.52
-79.73
-86.07
-94.83
-105.23
-115.33
-122.42
-123.62
-116.67
-100.48
-75.44
-43.45
-7.58
28.40
60.73
86.24
102.97
110.42
109.53
102.26
90.94
77.75
64.29
51.54
40.04
30.05
21.70
15.06
10.10
6.65
4.40
2.87
1.43
-0.55
-3.58
-7.93
-13.51
-19.91
-26.65
-33.34
-39.96
-46.90
-54.81
-64.31
-75.51
-87.69
-99.21
-107.71
-110.69
-106.09
-93.00
-72.02
-45.26
-16.03
11.92
35.15
51.35
59.64
60.55
55.65
46.88
36.12
24.95
14.68
6.38
0.87
-1.47
-0.97
1.29
3.72
4.66
2.98
-1.56
-8.30
-16.00
-23.35
-29.59
-34.73
-39.66
-45.85
-54.92
-67.98
-85.18
-105.40
-126.15
-143.80
-154.30
-153.93
-140.59
-114.58
-78.94
-38.84
-0.18
32.10
55.26
69.04
74.90
74.77
70.08
61.42
49.04
33.65
16.81
0.72
-12.61
-22.12
-27.98
-31.35
-33.52
-35.23
-36.33
-36.01
-33.47
-28.56
-22.05
-15.48
-10.72
-9.41
-12.77
-21.44
-35.31
-53.19
-72.45
-88.95
-97.72
-94.42
-76.88
-46.24
-6.75
35.55
74.74
106.54
129.01
142.06
146.65
144.00
135.39
122.27
106.49
90.13
75.21
63.26
55.03
50.50
49.02
49.56
50.96
52.11
52.17
50.72
47.84
43.94
39.46
34.53
28.81
21.56
11.86
-1.10
-17.80
-38.06
-60.64
-82.92
-100.97
-110.22
-106.79
-89.01
-58.29
-18.93
23.15
62.31
94.58
118.28
133.44
140.79
141.02
134.57
122.09
104.94
85.28
65.72
48.61
35.45
26.57
21.37
18.59
16.88
15.15
12.73
9.48
5.62
1.50
-2.69
-7.07
-12.10
-18.45
-26.85
-37.93
-52.16
-69.49
-88.90
-108.07
-123.21
-129.88
-124.22
-104.44
-71.70
-30.00
15.04
57.79
93.95
121.11
138.53
146.51
145.90
137.94
124.37
107.39
89.45
72.69
58.39
46.85
37.46
29.28
21.62
14.39
8.05
3.31
0.52
-0.62
-1.30
-3.24
-8.21
-17.31
-30.33
-45.41
-59.25
-67.88
-67.79
-57.10
-36.23
-7.87
23.90
54.71
80.99
100.59
112.68
117.40
115.45
107.77
95.51
80.06
63.09
46.42
31.71
20.32
12.91
9.54
9.50
11.56
14.20
16.03
16.12
14.27
10.95
6.99
3.12
-0.46
-4.17
-8.89
-15.41
-23.96
-33.99
-44.36
-53.80
-61.44
-67.17
-71.68
-76.20
-82.16
-91.00
-103.71
-120.41
-139.72
-158.28
-171.04
-172.40
-158.05
-126.83
-81.55
-28.39
24.95
71.53
106.90
129.58
140.47
141.68
135.54
124.12
109.33
93.01
76.96
62.67
51.04
42.24
35.83
31.08
27.34
24.19
21.42
18.87
16.24
12.99
8.56
2.59
-4.93
-13.59
-22.75
-31.86
-40.62
-49.23
-58.36
-68.98
-82.05
-97.81
-115.03
-130.68
-140.23
-139.02
-123.90
-94.89
-55.42
-11.44
30.53
65.44
90.71
106.17
113.07
112.94
107.13
96.78
83.21
68.11
53.27
40.14
29.42
21.10
14.74
9.93
6.53
4.57
3.94
4.14
4.18
2.88
-0.66
-6.64
-14.51
-23.17
-31.47
-38.77
-45.19
-51.61
-59.48
-70.19
-84.52
-101.92
-119.97
-134.53
-140.59
-133.86
-112.31
-77.22
-32.98
14.28
58.50
95.26
122.30
139.17
146.47
145.26
136.94
123.44
107.20
90.88
76.64
65.58
57.52
51.34
45.57
39.13
31.79
24.30
18.09
14.67
14.93
18.58
24.10
29.08
31.24
29.25
23.22
14.44
4.57
-5.27
-15.21
-26.48
-40.91
-59.91
-83.51
-109.61
-133.85
-150.40
-153.77
-140.74
-111.90
-71.77
-27.37
14.09
47.34
70.25
83.78
91.07
96.24
103.22
114.89
132.34
154.56
178.72
200.96
217.68
226.42
