1661942085.00
64.000000
-0.00
-0.00
-0.00
-0.00
-0.00
-0.00
-0.00
-0.00
-0.00
-0.00
0.00
0.01
0.01
-0.00
-0.03
-0.05
-0.05
0.00
0.13
0.36
0.66
1.01
1.37
1.72
2.06
2.40
2.79
3.24
3.80
4.42
5.06
5.66
6.20
6.68
7.15
7.68
8.31
9.14
10.09
11.04
11.88
12.56
13.14
13.76
14.65
15.96
17.91
20.32
22.90
25.38
27.58
29.57
31.68
34.32
37.81
42.54
48.15
54.10
59.83
64.97
69.58
74.14
79.34
85.71
93.76
103.00
112.62
121.73
129.77
136.75
143.30
150.75
157.77
166.64
177.95
191.79
206.97
220.57
228.25
225.36
208.53
176.87
132.76
80.05
23.07
-34.94
-92.44
-149.16
-205.23
-260.37
-313.74
-363.87
-409.83
-450.91
-486.50
-515.74
-537.23
-549.22
-549.96
-538.37
-514.21
-478.67
-433.88
-382.45
-327.02
-269.84
-212.63
-156.66
-102.95
-52.37
-5.90
35.58
71.43
101.35
125.50
144.38
158.69
169.15
176.37
180.75
182.57
182.07
179.51
175.23
169.65
163.18
156.15
148.81
141.30
133.69
126.02
118.33
110.69
103.16
95.80
88.68
81.83
75.25
68.95
62.95
57.25
51.86
46.78
42.03
37.59
33.45
29.61
26.07
22.81
19.83
17.11
14.67
12.48
10.54
8.83
7.35
6.07
4.97
4.05
3.27
2.62
2.09
1.65
1.30
1.01
0.79
0.61
0.47
0.37
0.29
0.23
0.18
0.16
0.14
0.13
0.14
0.15
0.17
0.20
0.23
0.26
0.30
0.34
0.39
0.45
0.51
0.56
0.58
0.58
0.55
0.52
0.50
0.51
0.56
0.64
0.73
0.82
0.87
0.91
0.96
1.03
1.16
1.37
1.61
1.87
2.09
2.26
2.38
2.50
2.69
3.01
3.47
4.03
4.58
5.02
5.26
5.34
5.38
5.56
6.02
6.80
7.77
8.73
9.42
9.71
9.64
9.46
9.49
10.02
11.08
12.42
13.55
13.95
13.24
11.32
8.51
5.22
1.84
-1.49
-4.92
-8.81
-13.49
-19.14
-25.81
-33.39
-41.50
-49.19
-54.99
-57.10
-54.14
-45.84
-33.49
-19.55
-6.79
2.82
8.72
11.66
12.92
13.56
13.87
13.62
12.47
10.43
7.97
5.76
4.22
3.31
2.58
1.42
-0.53
-3.26
-6.37
-9.16
-10.92
-11.29
-10.40
-8.93
-7.77
-7.58
-8.59
-10.57
-12.81
-14.54
-15.27
-14.99
-14.18
-13.64
-13.89
-15.42
-18.41
-22.63
-27.26
-30.80
-31.24
-26.69
-16.16
0.27
20.62
41.77
60.40
74.22
82.44
85.79
85.97
82.45
75.90
67.03
56.56
45.22
33.89
23.38
14.29
6.77
0.56
-4.52
-8.84
-12.67
-15.94
-18.35
-19.56
-19.56
-18.79
-18.15
-18.35
-20.03
-23.31
-27.71
-32.33
-36.23
-38.86
-40.23
-40.96
-41.80
-43.68
-47.39
-53.39
-61.70
-71.68
-81.89
-90.09
-93.63
-90.04
-77.96
-57.76
-31.56
-2.72
25.25
49.54
68.63
82.21
90.81
95.15
95.77
93.06
87.39
79.45
70.20
60.84
52.38
45.42
40.08
36.16
33.43
31.87
31.67
32.94
35.48
38.61
41.34
42.63
41.82
38.84
34.17
28.70
23.29
18.51
14.43
10.72
6.78
2.12
-3.35
-9.35
-15.33
-20.76
-25.40
-29.40
-33.21
-37.40
-42.44
-48.52
-55.39
-62.27
-67.87
-70.60
-68.97
-62.11
-50.18
-34.42
-16.88
0.12
14.54
25.02
30.94
32.34
29.79
24.13
16.37
7.54
-1.48
-10.07
-17.95
-25.17
-31.96
-38.51
-44.84
-50.69
-55.57
-59.04
-60.94
-61.61
-61.94
-63.14
-66.41
-72.57
-81.57
-92.27
-102.39
-108.87
-108.54
-99.20
-80.30
-53.37
-21.63
10.92
40.61
64.86
82.56
93.72
99.01
99.27
95.31
87.96
78.12
66.77
54.94
43.54
33.26
24.58
17.72
12.73
9.40
7.36
5.99
4.63
2.65
-0.30
-4.26
-9.04
-14.38
-20.15
-26.40
-33.45
-41.72
-51.71
-63.77
-77.79
-92.82
-106.78
-116.60
-118.88
-111.02
-92.30
-64.31
-30.67
4.16
36.15
62.69
82.74
96.45
104.41
107.32
105.79
100.58
92.69
83.29
73.44
63.87
54.85
46.45
38.73
31.96
26.57
22.91
20.98
20.24
19.75
18.50
15.75
11.24
5.15
-2.04
-9.83
-17.89
-26.13
-34.82
-44.56
-56.08
-69.76
-85.04
-99.96
-111.30
-115.38
-109.33
-92.25
-65.71
-33.28
0.64
32.22
58.97
79.90
95.00
104.63
109.17
108.99
104.70
97.34
88.25
78.73
69.86
62.14
55.66
50.20
45.51
41.39
37.84
34.98
32.96
31.80
31.29
30.98
30.14
27.98
23.87
17.57
9.31
-0.22
-10.14
-19.66
-28.35
-36.18
-43.50
-50.82
-58.73
-67.75
-78.28
-90.35
-103.31
-115.57
-124.53
-127.11
-120.71
-104.15
-78.33
-46.16
-11.65
21.21
49.42
71.43
86.92
96.28
100.23
99.52
94.99
87.59
78.44
68.68
59.37
51.34
45.15
41.01
38.80
38.17
38.59
39.50
40.38
40.81
40.47
39.14
36.74
33.26
28.75
23.26
16.75
9.13
0.40
-9.27
-19.45
-29.46
-38.67
-46.72
-53.69
-60.08
-66.69
-74.44
-83.99
-95.50
-108.19
-120.19
-128.62
-130.33
-122.82
-105.29
-79.08
-47.35
-14.15
16.82
43.10
63.68
78.62
88.37
93.33
93.83
90.38
83.90
75.74
67.30
59.60
53.04
47.40
42.26
37.41
33.06
29.76
28.09
28.23
29.69
31.46
32.27
31.08
27.45
21.59
14.25
6.36
-1.32
-8.45
-15.10
-21.77
-29.15
-37.90
-48.38
-60.26
-72.27
-82.21
-87.34
-85.18
-74.43
-55.50
-30.54
-2.80
24.38
48.37
67.66
81.76
90.76
94.97
94.76
90.62
83.33
73.95
63.76
53.95
45.44
38.72
33.88
30.74
29.02
28.46
28.89
30.18
32.13
34.43
36.63
38.13
38.41
37.15
34.27
30.02
24.83
19.22
13.66
8.56
4.10
0.32
-2.99
-6.17
-9.62
-13.65
-18.36
-23.53
-28.70
-33.39
-37.27
-40.36
-43.09
-46.05
-49.81
-54.60
-60.24
-66.23
-72.03
-77.26
-81.86
-86.09
-90.41
-95.44
-101.79
-109.92
-119.79
-130.41
-139.56
-144.11
-140.79
-127.44
-103.97
-72.68
-37.60
-3.20
26.88
50.67
67.82
78.94
84.93
86.50
84.15
78.40
70.10
60.38
50.52
41.63
34.42
29.14
25.64
23.60
22.66
22.56
23.12
24.17
25.49
26.71
27.39
27.04
25.24
21.71
16.39
9.49
1.49
-6.96
-15.16
-22.61
-29.14
-35.01
-40.83
-47.43
-55.58
-65.65
-77.31
-89.25
-99.25
-104.60
-102.76
-92.22
-73.15
-47.41
-18.11
11.31
37.92
59.84
76.31
87.37
93.42
95.00
92.73
87.34
79.74
71.00
62.08
53.71
46.29
39.92
34.60
30.40
27.53
26.27
26.73
28.68
31.43
33.97
35.31
34.77
32.29
28.38
24.00
20.08
17.22
15.38
13.98
12.13
9.05
4.41
-1.61
-8.33
-15.02
-21.12
-26.42
-31.09
-35.49
-40.06
-45.19
-51.17
-57.97
-65.09
-71.35
-74.96
-73.97
-67.01
-53.82
-35.68
-14.98
5.39
22.97
36.24
44.72
48.60
48.41
44.64
37.78
28.49
17.76
6.84
-3.07
-11.22
-17.58
-22.79
-27.81
-33.43
-39.85
-46.59
-52.78
-57.59
-60.70
-62.42
-63.57
-65.21
-68.32
-73.69
-81.81
-92.56
-104.93
-116.72
-124.71
-125.43
-116.32
-96.71
-68.30
-34.61
0.03
31.80
58.16
77.94
91.02
97.69
98.53
94.30
86.17
75.69
64.60
54.34
45.68
38.65
32.76
27.45
22.52
18.22
15.14
13.75
14.11
15.58
17.05
17.26
15.27
10.72
3.94
-4.26
-12.92
-21.28
-29.04
-36.39
-43.97
-52.68
-63.34
-76.23
-90.71
-104.86
-115.71
-119.84
-114.47
-98.44
-72.85
-40.76
-6.34
26.35
54.25
75.73
90.36
98.45
100.66
97.86
91.07
81.58
70.74
59.79
49.60
40.60
32.84
26.27
20.96
17.14
15.03
14.61
15.37
16.37
16.48
14.80
10.97
5.24
-1.69
-9.03
-16.21
-23.08
-29.98
-37.56
-46.63
-57.79
-70.95
-84.88
-97.11
-104.35
-103.39
-92.35
-71.41
-43.04
-11.12
20.22
47.81
69.93
86.17
96.82
102.21
102.60
98.32
90.16
79.47
67.97
57.20
48.10
40.82
34.89
29.77
25.21
21.45
18.99
18.16
18.74
19.82
20.06
18.14
13.27
5.52
-4.31
-14.94
-25.16
-34.19
-41.92
-48.84
-55.90
-64.26
-74.96
-88.50
-104.26
-120.30
-133.40
-139.78
-136.18
-121.00
-95.01
-61.15
-23.70
13.01
45.60
72.12
91.92
105.10
112.09
113.52
110.17
103.16
93.89
83.81
74.14
65.63
58.47
52.48
47.34
42.85
39.09
36.32
34.83
34.66
35.31
35.83
34.99
31.67
25.31
16.16
5.19
-6.26
-16.99
-26.40
-34.64
-42.52
-51.17
-61.65
-74.58
-89.67
-105.61
-119.94
-129.45
-130.98
-122.36
-103.25
-75.35
-42.06
-7.47
24.70
51.83
72.67
86.93
94.88
96.93
93.61
85.67
74.18
60.44
45.74
31.16
17.35
4.65
-6.78
-16.67
-24.57
-29.92
-32.28
-31.65
-28.60
-24.24
-19.92
-16.74
-15.31
-15.54
-16.91
-18.76
-20.76
-22.91
-25.53
-28.83
-32.76
-36.87
-40.53
-43.17
-44.52
-44.68
-44.10
-43.45
-43.49
-44.84
-47.66
-51.26
-54.00
-53.43
-47.02
-33.06
-11.42
16.20
46.64
76.30
102.06
121.98
135.37
142.46
143.80
140.01
131.63
119.37
104.29
87.79
71.43
56.61
44.26
34.71
27.72
22.74
19.22
16.73
15.11
14.35
14.37
14.98
15.68
15.81
14.69
11.81
7.01
0.53
-7.07
-15.17
-23.22
-30.91
-38.17
-45.20
-52.36
-60.16
-69.20
-79.93
-92.29
-105.32
-117.01
-124.57
-125.20
-116.98
-99.66
-74.78
-45.20
-14.24
15.24
41.25
62.73
79.21
90.46
96.42
97.18
93.27
85.72
75.94
65.48
55.60
47.07
40.01
34.10
28.89
24.12
19.86
16.45
14.19
13.10
12.73
12.19
10.51
6.85
0.78
-7.67
-17.94
-28.98
-39.21
-46.67
-49.33
-45.60
-34.91
-18.04
3.06
25.76
47.47
66.31
81.21
91.88
98.32
100.65
99.06
93.87
85.77
75.76
64.99
54.58
45.42
38.13
33.07
30.37
29.95
31.47
34.41
38.02
41.49
44.09
45.30
44.92
43.02
39.87
35.76
30.93
25.54
19.82
14.14
9.02
4.99
2.27
0.62
-0.79
-3.10
-7.41
-14.38
-23.94
-35.42
-47.85
-60.29
-72.22
-83.63
-94.93
-106.80
-120.04
-135.26
-152.63
-171.46
-189.76
-204.33
-211.28
-207.18
-190.37
-161.86
-125.16
-85.22
-46.86
-13.40
13.72
34.62
50.01
60.49
66.32
67.70
65.28
60.23
54.12
48.31
43.59
40.03
37.24
34.80
32.58
30.86
30.15
30.82
32.80
35.45
37.69
38.33
36.57
32.21
25.79
18.32
10.93
4.38
-1.15
-6.16
-11.69
-18.92
-28.79
-41.45
-55.93
-69.98
-80.49
-84.25
-79.03
-64.47
-42.22
-15.54
11.77
36.52
56.75
71.78
81.79
87.26
88.62
86.24
80.62
72.56
63.16
53.58
44.77
37.33
31.48
27.20
24.39
22.94
22.80
23.81
25.67
27.89
29.91
31.23
31.62
31.20
30.37
29.67
29.57
30.22
31.49
32.90
33.86
33.85
32.54
29.87
26.07
21.52
16.67
11.94
7.56
3.58
-0.14
-3.82
-7.59
-11.44
-15.14
-18.33
-20.74
-22.27
-23.21
-24.10
-25.51
-27.86
-31.20
-35.23
-39.46
-43.43
-46.90
-49.99
-53.16
-56.98
-61.94
-68.15
-75.31
-82.77
-89.80
-95.92
-101.12
-105.87
-111.00
-117.49
-126.13
-137.20
-150.09
-162.93
-172.73
-175.82
-168.95
-150.42
-120.97
-83.68
-43.19
-4.28
29.36
55.75
74.48
86.13
91.66
92.01
88.13
81.02
71.79
61.63
51.55
42.28
34.25
27.62
22.41
18.59
16.04
14.56
13.84
13.44
12.93
11.90
10.06
7.19
3.21
-1.89
-8.10
-15.44
-24.07
-34.27
-46.29
-59.91
-73.99
-86.24
-93.64
-93.22
-83.13
-63.51
-36.61
-6.13
23.89
50.14
70.70
85.05
93.60
97.21
96.72
92.88
86.34
77.75
67.76
57.05
46.32
36.26
27.54
20.64
15.73
12.64
10.82
9.57
8.24
6.41
3.86
0.56
-3.49
-8.33
-14.01
-20.57
-28.03
-36.58
-46.61
-58.50
-72.20
-86.61
-99.43
-107.40
-107.40
-97.46
-77.68
-50.29
-18.91
12.57
40.96
64.30
81.77
93.30
99.23
100.11
96.71
90.02
81.17
71.28
61.22
51.63
42.86
35.16
28.72
23.75
20.40
18.59
17.92
17.72
17.08
15.20
11.63
6.39
0.01
-6.83
-13.60
-20.19
-26.95
-34.56
-43.81
-55.27
-68.95
-84.01
-98.52
-109.64
-114.17
-109.50
-94.58
-70.48
-40.19
-7.72
23.01
49.20
69.46
83.60
91.98
95.11
93.49
87.81
79.07
68.58
57.69
47.43
38.36
30.55
23.86
18.23
13.79
10.78
9.24
8.83
8.67
7.61
4.56
-1.04
-9.08
-18.84
-29.31
-39.59
-49.17
-58.12
-66.99
-76.73
-88.44
-102.95
-120.21
-138.81
-155.81
-167.24
-169.24
-159.33
-137.46
-106.05
-69.14
-31.07
4.81
36.62
63.77
86.32
104.34
117.66
126.06
129.62
128.98
125.30
119.91
113.96
108.12
102.55
97.09
91.52
85.84
80.33
75.41
71.42
68.35
65.71
62.61
57.99
51.01
41.41
29.64
16.77
4.09
-7.34
-17.06
-25.37
-33.19
-41.74
-52.12
-65.05
-80.49
-97.46
-113.81
-126.44
-131.91
-127.44
-111.89
-86.33
-53.90
-18.84
14.77
43.96
67.34
84.78
96.84
104.17
107.28
106.68
103.03
97.31
90.59
83.86
77.73
72.44
67.94
64.17
61.19
59.22
58.47
58.95
60.34
61.93
62.91
62.60
60.65
57.15
52.47
47.02
41.08
34.71
27.83
20.37
12.47
4.42
-3.37
-10.64
-17.39
-23.95
-30.78
-38.29
-46.60
-55.47
-64.38
-72.72
-80.05
-86.26
-91.62
-96.76
-102.56
-109.93
-119.51
-131.18
-143.72
-154.63
-160.53
-158.04
-145.00
-121.27
-89.01
-52.13
-15.12
18.19
45.34
65.41
78.65
85.83
87.92
85.87
80.64
73.28
64.85
56.32
48.47
41.76
36.35
32.24
29.36
27.63
26.96
27.24
28.16
29.18
29.58
28.62
25.78
20.95
14.51
7.12
-0.48
-7.84
-14.88
-21.94
-29.69
-38.77
-49.45
-61.12
-72.09
-79.76
-81.26
-74.46
-58.87
-35.94
-8.71
19.16
44.48
65.23
80.63
90.75
96.00
96.82
93.64
87.15
78.27
68.19
58.06
48.81
41.04
35.02
30.78
28.23
27.21
27.48
28.79
30.83
33.23
35.56
37.30
38.01
37.39
35.47
32.57
29.13
25.51
21.80
17.84
13.42
8.51
3.33
-1.73
-6.29
-10.32
-14.09
-18.13
-22.81
-28.21
-34.00
-39.63
-44.61
-48.76
-52.28
-55.72
-59.66
-64.57
-70.54
-77.34
-84.44
-91.26
-97.31
-102.42
-106.82
-111.13
-116.33
-123.49
-133.37
-145.81
-159.30
-170.86
-176.56
-172.62
-156.78
-129.21
-92.65
-51.71
-11.36
24.39
53.29
74.80
89.53
98.42
102.28
101.73
97.40
90.28
81.61
72.71
64.59
57.72
52.01
47.02
42.40
38.11
34.58
32.39
31.97
33.17
35.18
36.64
36.14
32.68
26.06
16.97
6.65
-3.57
-12.79
-20.76
-27.93
-35.13
-43.28
-53.11
-65.00
-78.73
-93.34
-106.91
-116.73
-119.76
-113.60
-97.36
-72.25
-41.35
-8.73
21.84
47.81
68.16
83.00
92.81
97.95
98.54
94.81
87.49
77.85
67.47
57.65
49.04
41.61
34.91
28.59
22.73
17.84
14.54
13.18
13.49
14.58
15.21
14.19
10.74
4.78
-3.13
-12.01
-20.78
-28.69
-35.54
-41.82
-48.50
-56.79
-67.56
-80.88
-95.59
-109.27
-118.66
-120.50
-112.56
-94.45
-67.86
-36.10
-3.18
27.25
52.67
71.88
84.76
91.77
93.58
90.93
84.68
75.87
65.67
55.17
45.22
36.22
28.28
21.36
15.57
11.15
8.36
7.21
7.22
7.49
6.93
4.69
0.53
-5.21
-11.80
-18.49
-24.92
-31.21
-37.92
-45.90
-55.94
-68.46
-83.13
-98.50
-112.00
-120.32
-120.28
-109.89
-89.19
-60.35
-27.12
6.31
36.45
61.15
79.64
92.06
98.92
100.74
98.08
91.72
82.73
72.41
61.95
52.17
43.39
35.63
28.86
23.33
19.48
17.64
17.75
19.05
20.28
20.01
17.23
11.65
3.76
-5.40
-14.76
-23.53
-31.54
-39.21
-47.42
-57.28
-69.68
-84.87
-101.94
-118.63
-131.45
-136.62
-131.17
-114.06
-86.71
-52.64
-16.36
17.94
47.43
70.94
88.53
100.79
108.28
111.23
109.81
104.45
96.08
86.09
76.03
67.21
60.38
55.52
52.07
49.22
46.44
43.66
41.26
39.73
39.16
39.05
38.29
35.66
30.30
22.13
11.88
0.70
-10.29
-20.43
-29.67
-38.38
-47.17
-56.62
-67.29
-79.67
-93.97
-109.68
-125.17
-137.57
-143.32
-139.24
-123.79
-97.82
-64.47
-28.10
7.12
38.29
64.14
84.54
99.74
109.89
114.91
114.93
110.63
103.33
94.70
86.28
79.01
73.20
68.64
65.00
62.12
60.09
59.12
59.35
60.63
62.38
63.79
63.92
62.06
57.90
51.59
43.75
35.21
26.76
18.93
11.80
4.98
-2.22
-10.39
-19.84
-30.32
-41.13
-51.37
-60.35
-67.83
-74.11
-79.94
-86.33
-94.30
-104.55
-117.10
-130.94
-143.83
-152.53
-153.57
-144.37
-124.22
-94.76
-59.54
-23.00
10.84
39.28
61.20
76.67
86.30
90.80
90.77
86.92
80.21
71.86
63.21
55.38
49.01
44.26
41.01
39.02
38.19
38.49
39.86
41.97
44.19
45.65
45.53
43.31
39.05
33.27
26.74
20.14
13.70
7.22
0.16
-8.00
-17.44
-27.85
-38.48
-48.44
-57.09
-64.30
-70.58
-76.98
-84.76
-94.82
-107.26
-120.80
-132.87
-140.02
-138.97
-127.66
-106.08
-76.41
-42.33
-7.92
23.37
49.47
69.62
84.00
93.18
97.73
98.16
95.00
88.99
81.08
72.35
63.76
56.07
49.72
44.89
41.62
39.85
39.41
40.00
41.08
41.98
41.98
40.63
37.77
33.62
28.49
22.59
15.89
8.18
-0.73
-10.78
-21.57
-32.43
-42.71
-51.94
-60.05
-67.38
-74.60
-82.58
-92.19
-103.96
-117.61
-131.61
-143.20
-148.80
-145.11
-130.27
-104.71
-71.17
-33.92
2.53
34.65
60.53
79.77
92.95
100.93
104.49
104.29
100.98
95.34
88.25
80.50
72.75
65.45
58.97
53.64
49.72
47.32
46.27
46.13
46.28
46.07
45.03
42.89
39.59
35.18
29.73
23.28
15.86
7.48
-1.75
-11.65
-21.89
-32.07
-41.78
-50.75
-59.00
-66.85
-74.99
-84.24
-95.33
-108.33
-122.22
-134.65
-142.26
-141.60
-130.35
-108.31
-77.67
-42.39
-6.94
24.97
51.15
70.93
84.62
92.91
96.41
95.64
91.22
84.07
75.31
66.18
57.69
50.49
44.84
40.61
37.53
35.30
33.71
32.64
32.04
31.79
31.65
31.19
29.89
27.23
22.80
16.46
8.31
-1.22
-11.47
-21.71
-31.32
-39.92
-47.48
-54.36
-61.22
-68.90
-78.20
-89.53
-102.48
-115.51
-125.94
-130.43
-126.03
-111.22
-86.64
-55.04
-20.50
12.87
41.95
65.07
81.92
92.88
98.55
99.52
96.41
90.13
81.86
72.91
64.50
57.39
51.91
47.91
45.01
42.79
40.95
39.41
38.24
37.54
37.25
37.00
36.13
33.84
29.48
22.81
14.10
4.13
-6.18
-16.04
-25.02
-33.13
-40.71
-48.28
-56.38
-65.58
-76.31
-88.64
-101.85
-114.13
-122.67
-124.26
-116.37
-98.20
-71.18
-38.65
-4.91
26.10
51.65
70.54
82.73
88.84
89.66
86.00
78.81
69.21
58.39
47.46
37.16
27.82
19.47
12.03
5.48
0.10
-3.71
-5.52
-5.21
-3.18
-0.35
1.98
2.57
0.64
-3.78
-9.92
-16.53
-22.45
-27.08
-30.63
-34.06
-38.70
-45.75
-55.67
-67.79
-80.18
-89.87
-93.59
-88.68
-74.06
-50.68
-21.30
10.24
40.18
65.69
85.29
98.69
106.32
108.86
106.98
101.46
93.19
83.29
72.91
63.02
54.15
46.45
39.78
33.93
28.92
24.88
22.12
20.88
21.21
22.86
25.34
27.96
30.03
30.99
30.48
28.49
25.31
21.41
17.30
13.21
8.97
4.07
-2.16
-10.13
-19.78
-30.39
-40.87
-50.12
-57.51
-63.02
-67.32
-71.45
-76.55
-83.53
-92.75
-103.64
-114.44
-122.25
-123.63
-115.56
-96.66
-67.86
-32.32
5.52
41.22
71.52
94.74
110.58
119.47
122.02
118.92
111.07
99.78
86.70
73.48
61.22
50.22
39.94
29.53
18.31
6.21
-6.16
-17.78
-27.77
-35.84
-42.51
-49.02
-56.88
-67.33
-80.85
-96.96
-114.26
-130.83
-144.85
-155.21
-162.03
-166.71
-171.51
-178.58
-188.79
-200.77
-210.75
-213.34
-203.21
-176.99
-134.63
-79.53
-17.61
44.60
101.85
151.20
192.17
226.04
254.79
280.16
302.98
322.78
337.66
344.86
341.87
328.02
305.80
