1661943220.00
64.000000
-0.00
-0.00
-0.00
-0.00
-0.00
-0.00
-0.00
-0.00
-0.00
-0.00
0.00
0.01
0.01
-0.00
-0.03
-0.05
-0.05
0.00
0.13
0.36
0.66
1.01
1.37
1.72
2.06
2.40
2.79
3.24
3.80
4.42
5.06
5.66
6.20
6.68
7.15
7.68
8.31
9.14
10.09
11.04
11.88
12.56
13.14
13.76
14.65
15.96
17.91
20.32
22.90
25.38
27.58
29.57
31.68
34.32
37.81
42.54
48.15
54.10
59.83
64.97
69.58
74.14
79.34
85.71
93.76
103.00
112.62
121.73
129.77
136.75
143.30
150.75
157.77
166.64
177.95
191.79
206.97
220.57
228.25
225.36
208.53
176.87
132.76
80.05
23.07
-34.94
-92.44
-149.16
-205.23
-260.37
-313.74
-363.87
-409.83
-450.91
-486.50
-515.74
-537.23
-549.22
-549.96
-538.37
-514.21
-478.67
-433.88
-382.45
-327.02
-269.84
-212.63
-156.66
-102.95
-52.37
-5.90
35.58
71.43
101.35
125.50
144.38
158.69
169.15
176.37
180.75
182.57
182.07
179.51
175.23
169.66
163.18
156.15
148.80
141.29
133.68
126.02
118.35
110.73
103.21
95.84
88.66
81.68
74.95
68.51
62.41
56.67
51.30
46.28
41.57
37.13
32.93
28.98
25.33
22.01
19.05
16.42
14.07
11.90
9.85
7.89
6.05
4.44
3.14
2.23
1.63
1.21
0.72
-0.02
-1.06
-2.27
-3.39
-4.14
-4.33
-4.04
-3.61
-3.48
-4.02
-5.34
-7.17
-8.96
-10.12
-10.31
-9.63
-8.63
-8.11
-8.68
-10.53
-13.23
-15.94
-17.80
-18.31
-17.53
-16.11
-14.88
-14.62
-15.89
-18.99
-23.85
-29.62
-34.43
-35.55
-30.25
-17.06
3.11
26.81
49.18
65.70
73.91
74.00
68.19
59.26
49.29
39.19
29.08
19.14
10.06
2.98
-1.11
-1.95
-0.19
2.90
5.86
7.75
8.38
8.26
8.19
8.84
10.33
12.27
13.86
14.33
13.33
11.10
8.44
6.30
5.46
6.12
7.85
9.78
10.87
10.37
8.08
4.37
0.03
-4.02
-7.26
-9.55
-11.19
-12.76
-14.81
-17.69
-21.43
-25.76
-30.04
-33.30
-34.29
-31.80
-25.04
-14.17
-0.47
13.83
26.23
34.67
38.17
36.97
32.16
25.08
16.87
8.32
-0.08
-7.82
-14.31
-18.94
-21.28
-21.35
-19.57
-16.70
-13.52
-10.56
-8.03
-5.80
-3.73
-1.86
-0.53
-0.22
-1.39
-4.16
-8.19
-12.78
-17.06
-20.32
-22.40
-23.62
-24.66
-26.20
-28.64
-31.82
-35.19
-38.03
-39.81
-40.55
-40.74
-41.17
-42.74
-46.24
-52.12
-60.28
-69.88
-78.32
-82.59
-79.66
-67.47
-45.79
-16.45
17.13
50.99
81.71
107.10
126.08
138.48
144.48
144.44
138.89
128.73
115.25
99.95
84.29
69.36
55.88
44.29
34.85
27.70
22.90
20.28
19.37
19.49
19.76
19.45
18.08
15.51
11.73
6.81
0.69
-6.69
-15.31
-25.00
-35.37
-45.86
-55.93
-65.15
-73.37
-80.76
-87.80
-95.29
-104.13
-115.06
-128.01
-141.75
-153.69
-160.34
-158.35
-145.55
-121.82
-89.16
-51.06
-11.53
25.96
58.96
86.09
106.77
120.84
128.38
129.75
125.63
117.14
105.68
92.78
79.86
67.99
57.82
49.55
43.08
38.21
34.76
32.66
31.80
31.91
32.43
32.55
31.32
27.94
22.07
13.94
4.30
-5.84
-15.58
-24.45
-32.54
-40.41
-48.87
-58.66
-70.30
-83.84
-98.63
-113.14
-125.02
-131.38
-129.52
-117.80
-96.27
-66.74
-32.38
3.21
36.79
66.00
89.39
106.16
115.98
118.94
115.62
107.16
95.22
81.59
67.85
55.04
43.69
33.92
25.72
19.19
14.54
11.95
11.28
12.01
13.16
13.57
12.23
8.61
2.77
-4.69
-12.90
-21.11
-28.90
-36.34
-43.96
-52.65
-63.33
-76.58
-92.16
-108.58
-123.11
-132.23
-132.61
-122.17
-100.91
-70.97
-35.95
0.11
33.73
62.55
85.29
101.43
110.90
113.93
111.10
103.38
92.13
78.83
64.89
51.40
39.11
28.51
19.89
13.43
9.12
6.71
5.61
4.96
3.81
1.44
-2.48
-7.84
-14.21
-21.15
-28.45
-36.26
-45.01
-55.38
-67.96
-82.96
-99.70
-116.31
-129.76
-136.45
-133.24
-118.58
-93.10
-59.59
-22.11
15.18
48.94
77.06
98.53
113.05
120.74
122.02
117.74
109.12
97.67
84.84
71.76
59.18
47.52
37.08
28.25
21.43
16.91
14.60
13.86
13.61
12.59
9.84
4.99
-1.70
-9.50
-17.69
-25.80
-33.86
-42.36
-52.11
-63.99
-78.58
-95.63
-113.62
-129.70
-140.09
-141.10
-130.44
-108.01
-76.09
-38.55
0.28
36.72
68.30
93.64
112.13
123.49
127.77
125.50
117.86
106.63
93.80
81.10
69.57
59.54
50.77
42.92
35.87
29.85
25.34
22.72
21.93
22.31
22.65
21.58
17.97
11.41
2.28
-8.35
-19.25
-29.41
-38.48
-46.84
-55.41
-65.31
-77.58
-92.72
-110.36
-128.85
-145.21
-155.56
-156.20
-144.75
-121.23
-88.12
-49.61
-10.27
26.21
57.62
83.06
102.38
115.57
122.60
123.56
119.05
110.25
98.75
86.28
74.28
63.66
54.81
47.68
42.05
37.69
34.51
32.51
31.66
31.74
32.19
32.19
30.82
27.37
21.54
13.54
4.01
-6.24
-16.45
-26.17
-35.29
-43.98
-52.60
-61.66
-71.77
-83.54
-97.23
-112.31
-126.98
-138.28
-142.69
-137.25
-120.65
-93.79
-59.60
-22.03
15.00
48.52
76.71
98.67
114.03
122.62
124.60
120.65
112.00
100.39
87.67
75.42
64.68
55.94
49.26
44.52
41.62
40.53
41.20
43.41
46.59
49.84
52.11
52.52
50.65
46.72
41.43
35.63
29.95
24.58
19.21
13.30
6.42
-1.48
-10.00
-18.49
-26.29
-33.06
-38.88
-44.25
-49.93
-56.67
-64.98
-74.84
-85.44
-95.17
-101.77
-102.91
-96.91
-83.29
-63.05
-38.40
-12.14
12.96
34.62
51.21
61.68
65.57
63.03
54.90
42.69
28.22
13.22
-1.14
-14.39
-26.60
-38.06
-48.86
-58.73
-67.09
-73.36
-77.20
-78.76
-78.71
-78.09
-78.26
-80.61
-86.40
-96.19
-109.28
-123.31
-134.42
-138.13
-130.82
-111.08
-80.38
-42.58
-2.64
34.94
67.08
92.25
110.05
120.46
123.66
120.10
110.78
97.43
82.12
66.84
52.91
40.90
30.77
22.25
15.26
10.06
7.04
6.42
7.83
10.22
12.12
12.03
9.03
3.07
-5.11
-14.30
-23.39
-31.74
-39.42
-47.09
-55.90
-67.10
-81.47
-98.76
-117.09
-132.90
-141.68
-139.32
-123.63
-95.26
-57.60
-15.64
25.57
62.23
92.20
114.74
129.85
137.75
138.83
133.85
124.21
111.77
98.57
86.32
76.06
68.09
62.22
58.07
55.36
54.08
54.37
56.36
59.88
64.37
68.93
72.59
74.64
74.80
73.26
70.52
67.12
63.45
59.63
55.64
51.38
46.89
42.27
37.67
33.19
28.77
24.33
19.79
15.18
10.67
6.48
2.74
-0.56
-3.64
-6.77
-10.17
-13.92
-17.90
-21.86
-25.53
-28.68
-31.24
-33.38
-35.50
-38.17
-41.96
-47.14
-53.59
-60.72
-67.83
-74.41
-80.50
-86.67
-93.73
-102.18
-111.90
-122.12
-131.76
-140.02
-146.76
-152.57
-158.58
-166.14
-176.49
-190.33
-207.29
-225.40
-240.86
-248.59
-243.50
-222.23
-184.58
-133.94
-76.27
-18.45
33.64
76.28
107.94
128.70
139.49
141.56
136.38
125.73
111.65
96.18
80.92
66.86
54.33
43.33
33.83
26.11
20.62
17.71
17.30
18.65
20.52
21.50
20.58
17.42
12.42
6.35
-0.06
-6.52
-13.26
-21.04
-30.86
-43.70
-59.94
-78.83
-98.05
-113.89
-122.02
-118.89
-103.04
-75.78
-40.81
-2.92
33.47
65.37
91.31
110.86
123.84
130.04
129.31
122.07
109.58
93.86
77.19
61.42
47.56
35.66
25.20
15.57
6.59
-1.40
-7.70
-11.80
-13.77
-14.42
-15.06
-17.13
-21.78
-29.66
-40.86
-54.81
-70.17
-84.59
-94.99
-98.09
-91.46
-74.33
-48.02
-15.50
19.52
53.59
84.09
109.30
128.10
139.68
143.64
140.20
130.50
116.58
100.98
85.95
72.94
62.30
53.52
45.75
38.44
31.68
26.11
22.51
21.14
21.47
22.13
21.37
17.78
10.76
0.74
-11.10
-23.27
-34.66
-44.76
-53.88
-62.90
-73.05
-85.63
-101.61
-121.10
-142.71
-163.27
-178.14
-182.39
-172.39
-147.26
-109.33
-63.49
-15.62
29.09
67.18
97.09
118.63
132.17
138.30
137.78
131.71
121.58
109.13
95.92
83.12
71.39
61.00
52.06
44.71
39.14
35.45
33.44
32.57
31.93
30.56
27.61
22.64
15.75
7.41
-1.68
-10.96
-20.26
-29.99
-41.05
-54.43
-70.62
-88.87
-106.83
-120.85
-126.81
-121.60
-104.16
-75.98
-40.59
-2.44
34.36
66.80
93.19
112.74
125.25
130.81
129.90
123.49
113.01
100.16
86.46
73.08
60.69
49.65
40.22
32.65
27.20
23.96
22.71
22.73
22.97
22.24
19.56
14.50
7.23
-1.49
-10.71
-19.63
-27.91
-35.78
-43.98
-53.49
-65.17
-79.27
-94.97
-110.17
-121.68
-125.98
-120.28
-103.54
-76.92
-43.42
-7.03
28.43
60.01
85.84
104.98
117.02
121.92
120.16
112.79
101.49
88.23
74.83
62.58
52.04
43.20
35.83
29.73
24.96
21.70
20.03
19.61
19.67
19.11
16.84
12.18
5.08
-3.90
-13.87
-23.91
-33.45
-42.41
-51.21
-60.60
-71.45
-84.37
-99.18
-114.58
-128.00
-136.04
-135.40
-124.04
-101.96
-71.36
-35.88
0.44
34.27
63.41
86.72
103.60
113.71
116.93
113.68
105.18
93.36
80.36
67.94
57.08
47.89
39.98
32.97
26.85
21.97
18.81
17.49
17.50
17.74
16.82
13.57
7.51
-1.06
-11.18
-21.65
-31.52
-40.40
-48.55
-56.78
-66.15
-77.64
-91.74
-107.94
-124.46
-138.29
-145.78
-143.69
-130.28
-106.04
-73.61
-36.94
-0.10
33.69
62.50
85.41
102.11
112.44
116.35
114.20
107.01
96.46
84.51
72.92
62.79
54.40
47.41
41.35
35.93
31.27
27.75
25.70
25.03
25.10
24.84
23.01
18.69
11.59
2.11
-8.75
-19.83
-30.16
-39.28
-47.41
-55.30
-64.02
-74.68
-87.95
-103.64
-120.32
-135.23
-144.76
-145.41
-134.94
-113.25
-82.51
-46.51
-9.50
25.00
54.74
78.69
96.57
108.33
114.05
113.97
108.84
99.92
88.86
77.30
66.53
57.33
49.99
44.41
40.34
37.49
35.57
34.27
33.29
32.29
30.95
28.95
25.95
21.65
15.80
8.29
-0.81
-11.18
-22.32
-33.61
-44.47
-54.46
-63.46
-71.69
-79.68
-88.19
-98.04
-109.81
-123.35
-137.42
-149.51
-156.24
-154.28
-141.53
-117.92
-85.68
-48.60
-10.92
23.82
53.43
76.96
94.23
105.35
110.45
109.89
104.47
95.50
84.64
73.49
63.25
54.62
47.76
42.57
38.78
36.17
34.54
33.73
33.54
33.70
33.77
33.16
31.18
27.17
20.82
12.26
2.10
-8.70
-19.25
-28.96
-37.72
-45.85
-53.85
-62.28
-71.61
-82.24
-94.39
-107.83
-121.43
-132.98
-139.46
-137.84
-126.14
-104.31
-74.37
-39.80
-4.51
28.25
56.34
78.74
95.02
105.02
108.63
106.14
98.41
86.97
73.83
60.89
49.57
40.51
33.65
28.51
24.62
21.75
19.96
19.45
20.17
21.64
22.91
22.74
20.02
14.21
5.57
-4.94
-15.97
-26.36
-35.52
-43.60
-51.28
-59.49
-69.06
-80.53
-93.96
-108.71
-123.17
-134.81
-140.52
-137.42
-123.89
-100.20
-68.64
-32.79
3.48
36.96
65.56
88.14
104.19
113.47
116.00
112.32
103.61
91.65
78.43
65.66
54.37
44.88
36.98
30.33
24.77
20.45
17.68
16.57
16.83
17.60
17.69
15.84
11.26
3.79
-5.98
-16.96
-27.99
-38.25
-47.53
-56.33
-65.60
-76.54
-90.08
-106.45
-124.65
-142.21
-155.52
-160.59
-154.30
-135.55
-105.70
-68.24
-27.69
11.78
47.16
76.83
100.13
116.72
126.40
129.15
125.53
116.90
105.23
92.62
80.69
70.27
61.37
53.58
46.52
40.18
34.93
31.30
29.59
29.52
30.20
30.25
28.26
23.27
15.07
4.32
-7.73
-19.72
-30.67
-40.27
-48.94
-57.67
-67.65
-79.97
-95.13
-112.68
-130.81
-146.42
-155.67
-154.98
-142.18
-117.41
-83.11
-43.40
-2.78
34.94
67.29
93.11
112.08
124.24
129.79
129.14
123.10
113.01
100.61
87.72
75.85
65.89
58.03
51.93
47.08
43.08
39.85
37.48
36.09
35.52
35.25
34.46
32.25
27.90
21.11
12.06
1.41
-9.96
-21.15
-31.53
-40.88
-49.46
-57.86
-66.91
-77.47
-90.17
-105.08
-121.25
-136.49
-147.54
-150.79
-143.35
-124.18
-94.53
-57.68
-17.97
20.47
54.56
82.55
103.72
117.86
125.02
125.45
119.86
109.59
96.48
82.59
69.69
58.91
50.55
44.26
39.42
35.47
32.24
29.84
28.50
28.23
28.60
28.77
27.67
24.41
18.57
10.38
0.54
-9.96
-20.18
-29.54
-37.92
-45.70
-53.61
-62.54
-73.30
-86.23
-100.81
-115.40
-127.26
-133.11
-130.09
-116.70
-93.43
-62.62
-27.81
7.30
39.70
67.38
89.19
104.45
112.81
114.27
109.45
99.68
86.90
73.14
60.02
48.47
38.74
30.68
24.09
18.96
15.42
13.60
13.35
14.06
14.75
14.25
11.58
6.31
-1.33
-10.58
-20.42
-29.96
-38.78
-46.99
-55.23
-64.45
-75.57
-89.14
-104.80
-120.89
-134.46
-141.89
-139.86
-126.56
-102.36
-69.81
-32.84
4.38
38.44
67.14
89.40
104.85
113.54
115.81
112.33
104.25
93.13
80.57
67.96
56.18
45.56
36.11
27.80
20.82
15.53
12.24
10.84
10.65
10.45
8.94
5.20
-0.95
-8.98
-17.94
-26.95
-35.54
-43.83
-52.42
-62.20
-74.05
-88.47
-105.06
-122.16
-136.87
-145.52
-144.69
-132.42
-108.93
-76.65
-39.49
-1.64
33.43
63.46
87.27
104.35
114.57
118.09
115.57
108.25
97.81
86.04
74.33
63.47
53.65
44.77
36.71
29.67
24.08
20.38
18.68
18.47
18.71
18.08
15.45
10.26
2.75
-6.28
-15.81
-25.05
-33.76
-42.31
-51.49
-62.32
-75.65
-91.69
-109.56
-127.01
-140.58
-146.38
-141.29
-124.11
-96.12
-60.74
-22.40
14.71
47.61
74.72
95.47
109.74
117.50
118.89
114.52
105.69
94.22
82.05
70.69
60.92
52.80
45.95
39.97
34.74
30.45
27.45
25.89
25.53
25.60
24.92
22.30
16.94
8.73
-1.64
-12.99
-24.02
-33.91
-42.51
-50.44
-58.76
-68.64
-80.98
-96.01
-112.96
-129.79
-143.32
-149.91
-146.43
-131.34
-105.32
-71.18
-32.96
5.23
40.12
69.71
92.94
109.36
118.75
121.23
117.43
108.68
96.86
83.99
71.78
61.24
52.68
45.84
40.28
35.62
31.76
28.87
27.19
26.79
27.33
27.95
27.39
24.43
18.32
9.14
-2.18
-14.16
-25.38
-35.05
-43.25
-50.81
-58.93
-68.71
-80.84
-95.28
-111.06
-126.21
-137.79
-142.50
-137.53
-121.50
-95.09
-60.99
-23.12
14.48
48.52
76.91
98.63
113.30
120.94
121.80
116.68
106.93
94.38
80.98
68.35
57.45
48.55
41.39
35.59
30.90
27.30
24.93
23.88
23.93
24.47
24.58
23.26
19.67
13.46
4.88
-5.27
-15.93
-26.13
-35.33
-43.58
-51.44
-59.79
-69.55
-81.47
-95.66
-111.28
-126.23
-137.34
-141.06
-134.53
-116.69
-88.68
-53.67
-15.79
20.97
53.62
80.39
100.44
113.47
119.48
118.81
112.36
101.62
88.48
74.79
62.01
50.91
41.64
33.98
27.71
22.78
19.35
17.60
17.40
18.16
18.80
18.08
14.96
8.97
0.44
-9.70
-20.27
-30.28
-39.28
-47.46
-55.56
-64.60
-75.61
-89.26
-105.39
-122.66
-138.30
-148.62
-149.88
-139.56
-117.34
-85.32
-47.39
-7.97
29.14
61.42
87.62
107.21
119.90
125.57
124.46
117.51
106.41
93.30
80.21
68.48
58.59
50.31
43.07
36.47
30.55
25.77
22.68
21.52
21.94
22.86
22.86
20.55
15.11
6.58
-4.21
-15.95
-27.38
-37.68
-46.77
-55.19
-63.95
-74.23
-86.99
-102.55
-120.11
-137.48
-151.23
-157.46
-152.95
-136.27
-108.38
-72.41
-32.66
6.61
42.12
71.90
95.05
111.25
120.49
122.96
119.29
110.66
98.80
85.68
73.03
62.00
52.94
45.60
39.44
34.05
29.46
26.01
24.14
23.91
24.74
25.46
24.65
21.15
14.53
5.24
-5.63
-16.76
-27.15
-36.34
-44.57
-52.52
-61.11
-71.25
-83.61
-98.29
-114.43
-129.94
-141.62
-145.81
-139.55
-121.63
-93.20
-57.49
-18.77
18.80
52.17
79.56
100.21
113.88
120.53
120.43
114.37
103.84
90.81
77.26
64.66
53.72
44.46
36.61
29.98
24.67
21.04
19.35
19.49
20.82
22.21
22.38
20.31
15.56
8.37
-0.47
-9.90
-19.05
-27.48
-35.36
-43.35
-52.44
-63.52
-76.97
-92.22
-107.48
-119.84
-125.90
-122.74
-108.92
-85.02
-53.56
-18.28
16.91
48.79
75.25
95.16
108.13
114.20
113.75
107.63
97.17
84.11
70.20
56.90
45.06
34.95
26.46
19.48
14.11
10.60
9.06
9.16
9.93
10.04
8.25
3.92
-2.79
-11.02
-19.74
-28.18
-36.16
-44.01
-52.48
-62.45
-74.64
-89.22
-105.39
-121.09
-133.09
-137.72
-132.00
-114.72
-87.03
-52.12
-14.26
22.49
55.09
81.81
101.87
115.02
121.27
120.95
114.94
104.70
92.07
78.83
66.24
54.93
45.00
36.30
28.82
22.79
18.53
16.20
15.44
15.33
14.58
11.95
6.73
-0.98
-10.33
-20.14
-29.39
-37.73
-45.49
-53.67
-63.51
-76.07
-91.80
-110.02
-128.68
-144.38
-153.04
-151.00
-136.31
-109.53
-73.69
-33.38
6.61
42.52
72.14
94.68
110.10
118.64
120.62
116.72
108.12
96.57
83.95
71.85
61.15
52.01
44.15
37.25
31.30
26.69
23.93
23.21
24.09
25.40
25.56
23.06
17.06
7.73
-3.88
-16.16
-27.61
-37.37
-45.50
-52.92
-61.04
-71.32
-84.71
-101.17
-119.27
-136.14
-147.93
-150.75
-141.86
-120.70
-89.18
-51.15
-11.26
26.35
58.87
84.98
104.38
117.17
123.50
123.55
117.89
107.68
94.70
80.93
68.12
57.35
48.87
42.35
37.22
33.05
29.76
27.54
26.58
26.79
27.59
27.94
26.63
22.71
15.84
6.42
-4.54
-15.80
-26.32
-35.60
-43.80
-51.55
-59.76
-69.37
-81.13
-95.19
-110.70
-125.61
-136.78
-140.72
-134.62
-117.36
-90.01
-55.59
-18.09
18.56
51.38
78.55
99.22
113.07
120.02
120.26
114.41
103.78
90.22
75.79
62.27
50.74
41.48
34.17
28.33
23.71
20.38
18.58
18.35
19.25
20.32
20.28
18.04
13.03
5.43
-3.97
-14.03
-23.78
-32.62
-40.55
-48.09
-56.10
-65.55
-77.15
-91.02
-106.22
-120.61
-131.03
-134.08
-127.17
-109.40
-82.05
-48.18
-11.77
23.39
54.33
79.27
97.38
108.50
112.90
111.20
104.45
94.00
81.34
67.80
54.40
41.86
30.70
21.35
14.15
9.30
6.69
5.75
5.54
4.91
2.87
-1.18
-7.31
-15.17
-24.13
-33.44
-42.66
-51.82
-61.42
-72.30
-85.42
-101.39
-119.82
-138.84
-154.89
-163.83
-162.02
-147.42
-120.20
-82.67
-38.73
7.24
51.29
90.83
123.97
149.49
166.71
175.70
177.45
173.95
168.05
162.90
161.42
164.15
169.13
172.56
170.56
161.12
144.77
