1661941357.00
64.000000
-0.00
-0.00
-0.00
-0.00
-0.00
-0.00
-0.00
-0.00
-0.00
-0.00
0.00
0.01
0.01
-0.00
-0.03
-0.05
-0.05
0.00
0.13
0.36
0.66
1.01
1.37
1.72
2.06
2.40
2.79
3.24
3.80
4.42
5.06
5.66
6.20
6.68
7.15
7.68
8.31
9.14
10.09
11.04
11.88
12.56
13.14
13.76
14.65
15.96
17.91
20.32
22.90
25.38
27.58
29.57
31.68
34.32
37.81
42.54
48.15
54.10
59.83
64.97
69.58
74.14
79.34
85.71
93.76
103.00
112.62
121.73
129.77
136.75
143.30
150.75
157.77
166.64
177.95
191.79
206.97
220.57
228.25
225.36
208.53
176.87
132.76
80.05
23.07
-34.94
-92.44
-149.16
-205.23
-260.37
-313.74
-363.87
-409.83
-450.91
-486.50
-515.74
-537.23
-549.22
-549.96
-538.37
-514.21
-478.67
-433.88
-382.45
-327.02
-269.84
-212.63
-156.66
-102.95
-52.37
-5.90
35.58
71.43
101.35
125.50
144.38
158.69
169.15
176.37
180.75
182.57
182.07
179.51
175.24
169.65
163.18
156.14
148.80
141.30
133.70
126.05
118.37
110.71
103.13
95.69
88.45
81.47
74.78
68.42
62.40
56.71
51.34
46.25
41.45
36.93
32.71
28.82
25.26
22.04
19.10
16.41
13.89
11.53
9.33
7.35
5.67
4.31
3.26
2.42
1.62
0.75
-0.29
-1.43
-2.53
-3.39
-3.88
-4.00
-3.95
-4.02
-4.48
-5.46
-6.85
-8.34
-9.53
-10.11
-10.07
-9.70
-9.49
-9.91
-11.19
-13.19
-15.44
-17.34
-18.43
-18.59
-18.06
-17.35
-17.08
-17.85
-20.06
-23.81
-28.48
-32.63
-34.11
-30.68
-20.92
-5.12
14.60
34.82
52.02
63.74
69.18
69.06
64.89
58.18
49.99
40.98
31.67
22.71
14.84
8.68
4.49
2.04
0.80
0.11
-0.43
-0.89
-0.96
-0.25
1.51
4.17
7.13
9.61
10.92
10.79
9.46
7.60
5.99
5.22
5.49
6.57
7.94
8.99
9.14
8.01
5.42
1.63
-2.70
-6.38
-8.23
-7.23
-3.10
3.48
11.01
17.65
21.84
22.82
20.73
16.31
10.56
4.29
-2.00
-7.96
-13.32
-17.72
-20.84
-22.44
-22.60
-21.60
-19.88
-17.85
-15.73
-13.45
-10.88
-7.93
-4.79
-1.97
-0.18
0.02
-1.47
-4.16
-7.17
-9.52
-10.62
-10.38
-9.25
-7.91
-7.02
-7.02
-7.98
-9.54
-10.88
-10.74
-7.73
-0.80
10.18
24.13
38.98
52.28
62.00
67.19
68.02
65.53
61.00
55.43
49.38
43.09
36.63
30.09
23.48
16.74
9.57
2.07
-5.50
-12.72
-19.10
-24.18
-27.74
-29.92
-31.18
-32.18
-33.54
-35.70
-38.74
-42.44
-46.33
-49.99
-53.22
-56.16
-59.32
-63.35
-68.83
-75.82
-83.58
-90.45
-94.11
-92.21
-83.12
-66.53
-43.66
-17.00
10.46
36.01
57.78
74.89
87.20
94.94
98.46
98.17
94.63
88.65
81.22
73.38
65.98
59.61
54.62
51.23
49.49
49.25
49.99
50.86
50.76
48.79
44.44
37.82
29.48
20.20
10.65
1.21
-8.12
-17.68
-28.12
-40.14
-54.21
-70.06
-86.35
-100.64
-109.97
-111.77
-104.82
-89.73
-68.82
-45.30
-22.30
-2.08
14.22
26.43
34.81
39.69
41.35
40.07
36.32
30.77
24.24
17.49
11.09
5.36
0.46
-3.43
-6.08
-7.21
-6.72
-4.85
-2.26
0.10
1.26
0.52
-2.35
-7.08
-13.03
-19.44
-25.68
-31.47
-37.02
-42.94
-50.09
-59.11
-70.05
-81.87
-92.52
-99.28
-99.59
-91.86
-76.11
-54.00
-28.33
-2.18
21.90
42.37
58.62
70.69
78.78
83.02
83.53
80.55
74.68
66.88
58.35
50.22
43.27
37.82
33.75
30.69
28.30
26.43
25.08
24.30
23.96
23.62
22.53
19.89
15.10
8.10
-0.64
-10.25
-19.77
-28.55
-36.38
-43.48
-50.41
-57.78
-66.19
-76.01
-87.15
-98.84
-109.44
-116.55
-117.60
-110.67
-95.27
-72.64
-45.44
-16.91
10.11
33.69
52.97
67.79
78.23
84.37
86.34
84.46
79.44
72.29
64.20
56.19
48.98
42.92
38.06
34.34
31.65
29.86
28.86
28.41
28.25
28.04
27.52
26.45
24.64
21.82
17.72
12.15
5.16
-2.90
-11.35
-19.48
-26.76
-33.08
-38.75
-44.39
-50.64
-58.10
-67.07
-77.44
-88.44
-98.51
-105.40
-106.70
-100.54
-86.33
-65.13
-39.41
-12.34
13.13
34.93
52.16
64.86
73.50
78.58
80.36
78.93
74.42
67.31
58.46
49.08
40.40
33.31
28.16
24.77
22.69
21.50
20.97
21.06
21.75
22.81
23.73
23.80
22.36
19.03
13.84
7.22
-0.14
-7.45
-14.09
-19.75
-24.47
-28.67
-33.05
-38.42
-45.49
-54.62
-65.51
-77.06
-87.31
-93.80
-94.16
-86.92
-72.01
-50.94
-26.28
-1.02
22.32
42.12
57.71
69.00
76.18
79.40
78.86
74.90
68.23
59.86
50.98
42.61
35.39
29.47
24.61
20.48
16.84
13.79
11.66
10.76
11.16
12.40
13.65
13.85
12.20
8.42
2.87
-3.60
-10.08
-15.93
-21.03
-25.73
-30.67
-36.55
-43.94
-53.12
-63.95
-75.56
-86.24
-93.63
-95.18
-89.12
-75.19
-54.92
-31.18
-7.26
14.11
31.43
44.32
53.08
58.10
59.60
57.72
52.85
45.80
37.72
29.75
22.62
16.49
11.12
6.22
1.81
-1.62
-3.44
-3.24
-1.17
1.93
4.83
6.33
5.67
2.77
-1.90
-7.54
-13.39
-18.94
-24.12
-29.21
-34.78
-41.54
-50.02
-60.26
-71.46
-81.87
-89.05
-90.55
-84.65
-71.05
-50.95
-26.68
-0.95
23.74
45.61
63.49
76.71
84.93
88.11
86.66
81.42
73.58
64.36
54.82
45.73
37.61
30.81
25.61
22.22
20.67
20.79
22.25
24.57
27.21
29.56
31.04
31.12
29.46
26.10
21.62
17.15
14.08
13.61
16.28
21.65
28.50
35.15
40.12
42.61
42.50
40.25
36.43
31.39
25.26
18.09
10.09
1.77
-6.14
-12.93
-18.10
-21.53
-23.49
-24.45
-25.00
-25.64
-26.70
-28.30
-30.34
-32.62
-34.95
-37.36
-40.10
-43.58
-48.14
-53.87
-60.42
-67.16
-73.46
-78.92
-83.58
-87.89
-92.52
-98.18
-105.48
-114.72
-125.66
-137.18
-147.22
-152.98
-151.62
-141.16
-121.25
-93.45
-60.78
-26.84
5.16
33.07
55.81
73.14
85.18
92.15
94.36
92.33
86.87
79.07
70.04
60.72
51.74
43.43
36.05
29.86
25.19
22.24
20.95
20.82
21.02
20.62
18.89
15.56
10.79
5.03
-1.27
-7.86
-14.84
-22.68
-32.03
-43.41
-56.84
-71.36
-84.92
-94.68
-97.77
-92.23
-77.74
-55.76
-29.11
-1.03
25.65
49.03
68.15
82.65
92.52
97.88
99.04
96.58
91.30
84.06
75.61
66.47
57.06
47.77
39.08
31.55
25.59
21.32
18.43
16.28
14.14
11.43
7.92
3.72
-0.86
-5.59
-10.41
-15.54
-21.40
-28.52
-37.37
-48.19
-60.64
-73.56
-84.88
-91.95
-92.18
-84.01
-67.44
-44.22
-17.28
10.11
35.25
56.41
72.81
84.29
90.95
93.04
90.97
85.48
77.51
68.05
57.96
47.80
37.95
28.70
20.47
13.71
8.76
5.72
4.27
3.77
3.47
2.69
1.01
-1.64
-5.05
-8.86
-12.68
-16.29
-19.71
-23.34
-27.87
-34.12
-42.66
-53.30
-64.80
-74.88
-80.70
-79.68
-70.38
-53.06
-29.57
-2.82
24.07
48.49
68.77
84.10
94.31
99.65
100.58
97.77
92.05
84.32
75.44
66.08
56.73
47.70
39.24
31.64
25.19
20.20
16.88
15.20
14.80
15.02
14.96
13.81
11.10
6.85
1.50
-4.26
-9.86
-15.08
-20.20
-25.90
-32.99
-42.08
-53.10
-65.04
-75.89
-83.03
-83.93
-77.02
-62.27
-41.31
-16.93
7.74
30.03
48.26
61.72
70.42
74.76
75.29
72.60
67.36
60.26
52.02
43.29
34.54
26.15
18.44
11.71
6.32
2.51
0.35
-0.42
-0.43
-0.46
-1.29
-3.35
-6.70
-11.00
-15.80
-20.70
-25.62
-30.81
-36.76
-44.07
-53.11
-63.72
-74.97
-85.07
-91.71
-92.56
-86.10
-72.18
-52.23
-28.87
-5.14
16.31
33.83
46.81
55.36
59.87
60.68
58.02
52.19
43.75
33.65
23.01
12.93
4.21
-2.74
-7.85
-11.36
-13.61
-14.98
-15.87
-16.60
-17.45
-18.65
-20.36
-22.73
-25.84
-29.77
-34.60
-40.44
-47.48
-55.97
-65.95
-77.03
-88.02
-97.03
-101.75
-100.19
-91.36
-75.64
-54.72
-31.02
-7.01
15.38
34.91
50.94
63.16
71.35
75.40
75.46
72.03
66.01
58.50
50.59
43.11
36.54
30.99
26.37
22.50
19.23
16.46
14.16
12.30
10.81
9.53
8.20
6.46
3.94
0.20
-5.11
-12.20
-20.92
-30.63
-40.09
-47.62
-51.42
-50.05
-42.91
-30.46
-14.12
4.12
22.17
38.31
51.35
60.62
65.83
67.02
64.44
58.63
50.44
40.94
31.30
22.53
15.34
10.05
6.63
4.88
4.57
5.53
7.64
10.75
14.60
18.72
22.50
25.27
26.46
25.77
23.21
19.19
14.46
10.11
7.31
7.13
10.24
16.70
25.87
36.52
47.12
56.20
62.64
65.83
65.70
62.60
57.07
49.72
41.18
32.08
23.05
14.72
7.70
2.42
-0.97
-2.66
-3.15
-3.11
-3.14
-3.70
-4.96
-6.86
-9.17
-11.67
-14.17
-16.66
-19.23
-22.20
-26.01
-31.21
-38.25
-47.12
-57.02
-66.25
-72.46
-73.29
-67.18
-53.98
-35.13
-13.20
8.94
28.91
45.37
57.88
66.53
71.43
72.57
69.86
63.50
54.15
42.96
31.27
20.27
10.69
2.69
-3.93
-9.48
-14.21
-18.17
-21.26
-23.35
-24.41
-24.58
-24.22
-23.94
-24.45
-26.46
-30.59
-37.20
-46.24
-57.03
-68.10
-77.28
-82.14
-80.64
-71.82
-56.17
-35.55
-12.62
9.94
30.07
46.55
58.89
66.97
70.72
70.12
65.31
56.88
45.88
33.73
21.82
11.14
2.03
-5.78
-12.87
-19.69
-26.25
-32.15
-36.73
-39.56
-40.74
-40.92
-41.17
-42.61
-46.16
-52.35
-61.22
-72.23
-84.11
-94.87
-102.00
-103.05
-96.39
-81.81
-60.78
-35.93
-10.28
13.66
34.36
51.19
63.95
72.43
76.29
75.30
69.76
60.70
49.68
38.28
27.53
17.69
8.37
-1.03
-10.75
-20.40
-29.07
-35.73
-39.74
-41.20
-41.01
-40.60
-41.49
-44.96
-51.76
-61.98
-75.06
-89.69
-103.89
-115.16
-120.98
-119.37
-109.58
-92.33
-69.66
-44.40
-19.37
3.18
21.79
35.76
44.88
49.33
49.53
46.19
40.25
32.75
24.74
17.03
10.15
4.26
-0.70
-4.93
-8.54
-11.48
-13.53
-14.49
-14.32
-13.37
-12.36
-12.34
-14.40
-19.45
-27.91
-39.45
-52.76
-65.64
-75.36
-79.28
-75.66
-64.12
-45.80
-22.95
1.81
26.14
48.28
67.09
81.82
91.86
96.77
96.52
91.61
83.17
72.69
61.62
51.02
41.40
32.76
24.91
17.71
11.30
6.02
2.23
0.10
-0.61
-0.50
-0.44
-1.40
-4.28
-9.78
-18.13
-28.84
-40.54
-51.05
-57.81
-58.58
-52.14
-38.64
-19.49
3.13
26.89
49.80
70.32
87.27
99.75
107.08
108.96
105.64
97.97
87.27
74.99
62.44
50.53
39.65
29.93
21.31
13.78
7.47
2.57
-0.83
-2.82
-3.80
-4.38
-5.32
-7.48
-11.70
-18.54
-28.03
-39.32
-50.59
-59.34
-63.00
-59.72
-48.97
-31.73
-10.08
13.44
36.49
57.29
74.59
87.47
95.27
97.60
94.57
86.94
76.05
63.50
50.76
38.84
28.17
18.78
10.48
3.18
-3.04
-7.97
-11.38
-13.23
-13.75
-13.52
-13.36
-14.21
-16.98
-22.28
-30.30
-40.57
-51.81
-62.03
-68.84
-70.04
-64.24
-51.34
-32.60
-10.25
13.07
34.98
53.75
68.30
78.13
83.07
83.20
78.89
70.81
59.98
47.68
35.26
23.87
14.25
6.64
0.85
-3.50
-6.83
-9.34
-11.11
-12.12
-12.51
-12.62
-13.00
-14.34
-17.32
-22.46
-29.98
-39.65
-50.57
-61.16
-69.29
-72.75
-69.82
-59.83
-43.45
-22.52
0.43
22.87
42.73
58.70
70.08
76.67
78.52
75.93
69.52
60.25
49.34
38.01
27.27
17.71
9.60
2.96
-2.19
-5.76
-7.62
-7.81
-6.60
-4.66
-2.90
-2.31
-3.68
-7.28
-12.65
-18.59
-23.34
-25.09
-22.47
-15.07
-3.48
10.79
25.78
39.54
50.51
57.69
60.70
59.63
55.03
47.64
38.30
27.81
16.86
6.02
-4.12
-12.98
-20.03
-24.97
-27.84
-29.09
-29.45
-29.74
-30.61
-32.39
-35.06
-38.36
-41.97
-45.67
-49.45
-53.52
-58.28
-64.29
-72.03
-81.59
-92.33
-102.67
-110.20
-112.24
-106.63
-92.59
-71.05
-44.50
-16.23
10.60
33.66
51.75
64.51
72.08
74.75
72.86
66.97
57.96
47.04
35.53
24.65
15.22
7.58
1.65
-2.83
-6.12
-8.37
-9.60
-9.83
-9.19
-8.04
-6.97
-6.65
-7.68
-10.45
-15.10
-21.58
-29.73
-39.15
-49.02
-58.01
-64.25
-65.80
-61.23
-50.19
-33.64
-13.60
7.47
27.27
44.17
57.18
65.89
70.14
70.00
65.80
58.21
48.25
37.14
26.10
16.17
7.99
1.78
-2.68
-5.83
-8.23
-10.30
-12.22
-13.90
-15.18
-16.01
-16.62
-17.51
-19.28
-22.43
-27.22
-33.73
-41.87
-51.38
-61.59
-71.15
-78.07
-80.03
-75.14
-62.68
-43.52
-19.97
4.91
28.22
47.91
62.95
73.14
78.65
79.84
77.09
70.97
62.26
51.96
41.08
30.46
20.73
12.33
5.56
0.68
-2.23
-3.33
-3.14
-2.44
-2.04
-2.57
-4.28
-7.05
-10.58
-14.56
-18.88
-23.63
-29.07
-35.56
-43.47
-52.96
-63.73
-74.73
-84.08
-89.36
-88.33
-79.62
-63.41
-41.41
-16.40
8.67
31.34
50.02
63.99
73.01
77.15
76.63
71.97
64.07
54.13
43.38
32.88
23.26
14.76
7.46
1.43
-3.11
-5.92
-6.94
-6.46
-5.22
-4.15
-4.13
-5.59
-8.51
-12.46
-16.88
-21.42
-26.01
-30.87
-36.44
-43.22
-51.54
-61.34
-71.93
-81.77
-88.67
-90.26
-84.68
-71.34
-51.17
-26.41
0.04
25.41
47.62
65.42
78.31
86.20
89.31
88.10
83.33
75.99
67.23
58.10
49.48
41.97
35.95
31.61
29.03
28.17
28.90
30.91
33.83
37.17
40.46
43.22
45.05
45.71
45.16
43.59
41.36
38.84
36.32
33.91
31.46
28.77
25.65
22.05
18.10
14.04
10.11
6.49
3.24
0.34
-2.29
-4.74
-7.08
-9.34
-11.52
-13.59
-15.51
-17.24
-18.76
-20.13
-21.47
-22.95
-24.75
-26.97
-29.62
-32.59
-35.71
-38.82
-41.84
-44.80
-47.86
-51.23
-55.13
-59.67
-64.82
-70.33
-75.82
-80.87
-85.22
-88.90
-92.41
-96.56
-102.34
-110.41
-120.61
-131.54
-140.69
-144.95
-141.54
-128.96
-107.49
-79.14
-47.00
-14.31
16.23
42.73
64.04
79.48
88.67
91.63
89.00
82.04
72.44
61.88
51.59
42.14
33.56
25.73
18.67
12.71
8.39
6.18
6.16
7.90
10.52
12.92
14.13
13.50
10.90
6.64
1.33
-4.41
-10.20
-16.05
-22.34
-29.68
-38.68
-49.55
-61.80
-74.02
-83.96
-88.97
-86.83
-76.45
-58.38
-34.70
-8.38
17.57
40.84
60.10
74.89
85.20
91.18
93.03
91.09
86.05
78.91
70.82
62.82
55.62
49.51
44.51
40.60
37.79
36.28
36.27
37.81
40.65
44.23
47.77
50.54
52.08
52.28
51.38
49.77
47.80
45.67
43.40
40.97
38.30
35.40
32.24
28.81
25.08
21.07
16.91
12.83
9.05
5.65
2.57
-0.39
-3.29
-5.98
-8.17
-9.62
-10.39
-10.95
-11.98
-14.10
-17.51
-21.89
-26.59
-30.94
-34.61
-37.72
-40.76
-44.33
-48.83
-54.32
-60.52
-66.92
-73.01
-78.45
-83.14
-87.34
-91.62
-96.71
-103.37
-112.00
-122.35
-133.19
-142.34
-147.03
-144.69
-133.66
-113.88
-86.95
-55.69
-23.40
6.92
33.06
53.72
68.37
77.04
80.12
78.30
72.54
63.96
53.75
42.98
32.61
23.33
15.68
9.94
6.22
4.37
4.06
4.81
6.04
7.26
8.00
7.96
6.96
4.97
2.03
-1.82
-6.66
-12.70
-20.22
-29.37
-39.86
-50.73
-60.40
-66.87
-68.30
-63.46
-52.21
-35.50
-15.19
6.47
27.32
45.57
60.01
69.87
74.81
74.91
70.64
62.94
53.05
42.31
31.87
22.44
14.29
7.37
1.54
-3.14
-6.49
-8.27
-8.48
-7.48
-5.98
-4.98
-5.52
-8.37
-13.80
-21.30
-29.57
-36.70
-40.54
-39.33
-32.19
-19.39
-2.28
17.12
36.64
54.41
69.09
79.92
86.60
89.12
87.71
82.80
74.99
65.13
54.20
43.28
33.29
24.94
18.56
14.12
11.33
9.71
8.72
7.81
6.51
4.47
1.55
-2.20
-6.57
-11.39
-16.61
-22.48
-29.50
-38.18
-48.82
-61.07
-73.72
-84.76
-91.67
-92.13
-84.73
-69.47
-47.83
-22.38
3.94
28.54
49.63
66.30
78.32
85.83
89.11
88.55
84.63
78.02
69.57
60.25
50.95
42.44
35.21
29.49
25.29
22.45
20.65
19.52
18.60
17.49
15.83
13.41
10.17
6.11
1.24
-4.54
-11.51
-20.04
-30.39
-42.38
-55.13
-66.96
-75.67
-79.04
-75.47
-64.47
-46.85
-24.45
0.28
24.92
47.41
66.28
80.66
90.15
94.76
94.86
91.10
84.46
76.08
67.16
58.72
51.46
45.59
40.95
37.17
33.97
31.27
29.20
27.93
27.41
27.19
26.49
24.48
20.55
14.61
7.10
-1.23
-9.64
-17.58
-24.89
-31.67
-38.29
-45.24
-53.11
-62.37
-73.06
-84.48
-95.02
-102.31
-103.92
-98.05
-84.23
-63.52
-38.20
-11.05
15.33
39.01
58.79
74.16
84.96
91.33
93.59
92.33
88.38
82.74
76.45
70.42
65.26
61.23
58.31
56.34
55.17
54.76
55.15
56.37
58.24
60.36
62.13
62.92
62.32
60.23
56.94
52.94
48.71
44.57
40.58
36.61
32.45
27.99
23.29
18.55
14.05
10.01
6.51
3.46
0.57
-2.49
-6.01
-10.08
-14.54
-19.09
-23.35
-27.15
-30.56
-33.92
-37.66
-42.10
-47.32
-53.10
-59.01
-64.55
-69.39
-73.43
-76.87
-80.19
-84.04
-89.13
-95.98
-104.55
-113.98
-122.45
-127.54
-126.79
-118.55
-102.56
-80.15
-53.85
-26.61
-1.00
21.23
39.30
53.13
62.93
69.03
71.74
71.46
68.74
64.27
58.81
53.13
47.86
43.43
40.11
38.02
37.19
37.56
38.99
41.19
43.74
46.06
47.62
48.01
47.07
44.92
41.88
38.34
34.63
30.92
27.19
23.28
18.98
14.13
8.74
3.01
-2.71
-7.99
-12.56
-16.39
-19.74
-23.09
-26.84
-31.23
-36.13
-41.20
-46.01
-50.24
-53.77
-56.78
-59.67
-62.99
-67.36
-73.23
-80.65
-88.95
-96.64
-101.62
-101.72
-95.43
-82.48
-64.01
-42.21
-19.61
1.61
20.01
34.91
46.17
53.85
58.09
59.12
57.40
53.60
48.56
43.07
37.78
33.08
29.22
26.33
24.54
23.91
24.42
25.86
27.92
30.15
32.10
33.44
33.89
33.36
31.78
29.16
25.59
21.21
16.30
11.16
6.07
1.15
-3.67
-8.61
-13.93
-19.78
-26.01
-32.21
-37.87
-42.53
-46.06
-48.68
-50.90
-53.36
-56.61
-61.01
-66.59
-72.98
-79.31
-84.21
-85.96
-82.93
-74.07
-59.46
-40.25
-18.40
3.96
25.13
44.07
60.28
73.51
83.43
89.54
91.52
89.55
84.37
77.22
69.42
62.03
55.65
50.45
46.12
42.40
39.18
36.48
34.41
32.98
32.13
31.61
31.01
29.27
25.48
19.01
9.80
-1.66
-14.26
-26.58
-37.35
-45.91
-53.49
-61.66
-71.85
-84.80
-100.23
-116.84
-132.59
-145.26
-153.07
-157.07
-159.26
-162.53
-170.02
-184.32
-206.40
-234.55
