1661942210.00
64.000000
-0.00
-0.00
-0.00
-0.00
-0.00
-0.00
-0.00
-0.00
-0.00
-0.00
0.00
0.01
0.01
-0.00
-0.03
-0.05
-0.05
0.00
0.13
0.36
0.66
1.01
1.37
1.72
2.06
2.40
2.79
3.24
3.80
4.42
5.06
5.66
6.20
6.68
7.15
7.68
8.31
9.14
10.09
11.04
11.88
12.56
13.14
13.76
14.65
15.96
17.91
20.32
22.90
25.38
27.58
29.57
31.68
34.32
37.81
42.54
48.15
54.10
59.83
64.97
69.58
74.14
79.34
85.71
93.76
103.00
112.62
121.73
129.77
136.75
143.30
150.75
157.77
166.64
177.95
191.79
206.97
220.57
228.25
225.36
208.53
176.87
132.76
80.05
23.07
-34.94
-92.44
-149.16
-205.23
-260.37
-313.74
-363.87
-409.83
-450.91
-486.50
-515.74
-537.23
-549.22
-549.96
-538.37
-514.21
-478.67
-433.88
-382.45
-327.02
-269.84
-212.63
-156.66
-102.95
-52.37
-5.90
35.58
71.43
101.35
125.50
144.38
158.69
169.15
176.37
180.75
182.57
182.07
179.51
175.23
169.65
163.18
156.15
148.81
141.30
133.69
126.02
118.33
110.69
103.16
95.80
88.68
81.83
75.25
68.95
62.95
57.25
51.86
46.78
42.03
37.59
33.45
29.61
26.07
22.81
19.83
17.11
14.67
12.48
10.54
8.83
7.35
6.07
4.97
4.05
3.27
2.62
2.09
1.65
1.30
1.01
0.79
0.61
0.48
0.37
0.29
0.23
0.18
0.16
0.15
0.16
0.18
0.20
0.21
0.19
0.16
0.10
0.04
-0.01
-0.05
-0.06
-0.06
-0.07
-0.07
-0.09
-0.10
-0.10
-0.08
-0.03
0.04
0.11
0.16
0.16
0.11
0.05
-0.00
0.00
0.09
0.23
0.38
0.45
0.41
0.25
0.01
-0.19
-0.28
-0.18
0.06
0.32
0.48
0.42
0.13
-0.30
-0.69
-0.90
-0.83
-0.52
-0.16
0.07
0.03
-0.32
-0.84
-1.32
-1.64
-1.67
-1.50
-1.27
-1.17
-1.47
-2.56
-5.02
-9.19
-14.93
-21.21
-26.38
-28.66
-26.77
-20.53
-10.83
0.76
12.62
23.46
32.43
38.88
42.31
42.30
38.88
32.66
24.80
16.72
9.54
3.80
-0.58
-3.98
-6.75
-9.10
-10.96
-12.03
-12.10
-11.07
-9.04
-6.34
-3.38
-0.63
1.49
2.63
2.70
1.82
0.30
-1.44
-3.04
-4.36
-5.46
-6.61
-8.03
-9.80
-11.75
-13.60
-15.02
-15.85
-16.15
-16.15
-16.22
-16.75
-17.89
-19.63
-21.71
-23.76
-25.41
-26.40
-26.66
-26.46
-26.34
-26.96
-29.01
-32.90
-38.45
-44.68
-49.90
-51.31
-46.55
-34.36
-15.23
8.62
33.96
57.55
77.08
91.51
100.87
105.56
106.09
102.85
96.33
87.27
76.67
65.56
54.75
44.70
35.54
27.30
20.15
14.38
10.37
8.27
7.87
8.60
9.64
10.11
9.42
7.34
4.08
0.09
-4.19
-8.47
-12.72
-17.14
-22.00
-27.42
-33.30
-39.26
-44.85
-49.71
-53.83
-57.58
-61.64
-66.82
-73.73
-82.46
-92.24
-101.26
-106.94
-106.56
-98.08
-80.96
-56.51
-27.56
2.38
30.14
53.68
72.17
85.67
94.50
98.97
99.27
95.79
89.32
81.00
72.09
63.57
55.94
49.21
43.20
37.80
33.19
29.78
27.97
27.87
29.14
31.12
32.97
34.01
33.86
32.48
30.06
26.87
23.26
19.50
15.86
12.46
9.25
6.01
2.46
-1.62
-6.19
-10.96
-15.55
-19.61
-23.04
-25.98
-28.80
-31.93
-35.76
-40.53
-46.26
-52.56
-58.56
-62.90
-64.03
-60.62
-52.13
-39.09
-23.07
-6.30
9.00
21.24
29.70
34.46
36.09
35.18
32.16
27.31
20.89
13.35
5.34
-2.39
-9.22
-14.85
-19.43
-23.42
-27.38
-31.69
-36.33
-40.97
-45.10
-48.33
-50.58
-52.17
-53.69
-55.80
-59.08
-64.03
-70.97
-79.76
-89.53
-98.37
-103.57
-102.37
-92.89
-75.03
-50.63
-22.91
4.64
29.14
48.90
63.27
72.22
75.98
74.92
69.69
61.33
51.17
40.50
30.22
20.71
11.92
3.73
-3.81
-10.32
-15.19
-17.89
-18.30
-16.85
-14.50
-12.46
-11.73
-12.77
-15.41
-18.98
-22.69
-26.02
-28.95
-31.99
-36.03
-41.99
-50.44
-61.19
-73.01
-83.55
-89.84
-89.04
-79.40
-61.00
-35.77
-6.92
21.96
47.94
69.19
84.98
95.40
100.84
101.79
98.84
92.76
84.52
75.27
66.11
57.92
51.26
46.35
43.19
41.63
41.50
42.61
44.74
47.57
50.69
53.62
55.86
57.09
57.20
56.32
54.72
52.76
50.67
48.53
46.29
43.72
40.70
37.14
33.13
28.89
24.68
20.74
17.21
14.03
11.05
8.07
4.95
1.71
-1.46
-4.36
-6.84
-8.95
-10.91
-13.07
-15.73
-18.97
-22.64
-26.41
-29.95
-33.06
-35.85
-38.65
-41.88
-45.91
-50.85
-56.53
-62.60
-68.54
-73.97
-78.67
-82.81
-86.91
-91.80
-98.40
-107.38
-118.66
-130.93
-141.65
-147.40
-144.86
-131.91
-108.47
-76.69
-40.34
-3.73
29.46
56.84
77.42
91.25
98.89
101.08
98.59
92.31
83.25
72.52
61.14
49.95
39.55
30.32
22.53
16.37
11.93
9.10
7.54
6.70
5.93
4.75
2.88
0.32
-2.82
-6.47
-10.71
-15.78
-22.09
-30.16
-40.31
-52.35
-65.20
-76.72
-84.05
-84.37
-75.92
-58.75
-34.82
-7.36
20.17
45.07
65.86
82.06
93.68
100.75
103.19
100.95
94.46
84.61
72.81
60.54
49.01
38.93
30.43
23.26
17.04
11.48
6.43
1.91
-2.05
-5.53
-8.72
-11.90
-15.40
-19.53
-24.61
-31.06
-39.32
-49.66
-61.78
-74.38
-85.13
-91.09
-89.53
-78.98
-59.86
-34.38
-5.91
22.15
47.17
67.68
83.22
93.89
99.94
101.64
99.37
93.74
85.67
76.21
66.43
57.12
48.82
41.77
35.98
31.35
27.73
24.96
22.82
21.10
19.54
17.85
15.66
12.64
8.50
3.11
-3.46
-10.93
-18.91
-27.01
-34.87
-42.24
-48.98
-55.10
-60.79
-66.51
-72.98
-81.04
-91.20
-103.08
-115.05
-124.28
-127.46
-121.94
-106.69
-82.83
-53.24
-21.65
8.49
34.76
55.96
71.81
82.40
87.93
88.70
85.20
78.33
69.30
59.47
50.00
41.69
34.75
29.05
24.28
20.21
16.83
14.35
13.00
12.79
13.40
14.11
14.02
12.26
8.31
2.13
-5.84
-14.74
-23.65
-31.75
-38.72
-44.66
-50.14
-55.97
-62.99
-71.86
-82.76
-95.09
-107.28
-116.86
-120.99
-117.20
-104.32
-82.90
-55.19
-24.49
5.84
33.12
55.79
73.23
85.38
92.38
94.43
91.91
85.52
76.37
65.83
55.28
45.81
38.07
32.18
27.90
24.80
22.53
20.89
19.86
19.48
19.62
19.88
19.65
18.27
15.25
10.44
3.96
-3.85
-12.51
-21.32
-29.24
-34.87
-36.69
-33.46
-24.70
-10.92
6.45
25.44
44.01
60.43
73.41
82.16
86.35
86.08
81.84
74.53
65.32
55.41
45.92
37.67
31.13
26.49
23.67
22.41
22.30
22.85
23.53
23.94
23.88
23.35
22.51
21.43
19.99
17.87
14.66
10.16
4.51
-1.77
-8.01
-13.63
-18.41
-22.56
-26.61
-31.14
-36.58
-43.00
-50.14
-57.48
-64.47
-70.69
-76.04
-80.75
-85.37
-90.69
-97.50
-106.28
-116.71
-127.30
-135.45
-137.95
-131.95
-116.06
-90.93
-59.17
-24.59
9.01
38.70
62.90
81.15
93.70
100.95
103.35
101.42
95.96
88.02
78.90
69.82
61.70
54.97
49.51
44.93
40.83
37.09
33.91
31.68
30.63
30.61
31.05
31.05
29.75
26.55
21.28
14.18
5.78
-3.24
-12.27
-20.77
-28.45
-35.30
-41.59
-47.82
-54.64
-62.70
-72.38
-83.35
-94.41
-103.39
-107.58
-104.51
-92.86
-73.06
-47.25
-18.66
9.39
34.38
54.92
70.65
81.74
88.47
91.11
89.89
85.30
78.11
69.32
59.98
50.97
42.93
36.18
30.82
26.78
23.87
21.81
20.29
18.99
17.72
16.34
14.77
12.90
10.51
7.28
2.94
-2.60
-9.16
-16.28
-23.40
-30.02
-35.88
-41.01
-45.75
-50.68
-56.44
-63.70
-72.80
-83.46
-94.43
-103.54
-108.07
-105.57
-94.73
-75.94
-51.22
-23.58
3.86
28.67
49.41
65.51
76.90
83.67
85.95
84.02
78.44
70.09
60.13
49.73
39.95
31.56
24.91
20.02
16.61
14.35
12.92
12.19
12.10
12.54
13.26
13.74
13.33
11.46
7.87
2.74
-3.40
-9.84
-15.99
-21.58
-26.65
-31.49
-36.43
-41.75
-47.70
-54.58
-62.67
-72.07
-82.19
-91.48
-97.55
-97.78
-90.31
-74.84
-52.89
-27.34
-1.44
22.15
41.87
57.16
68.03
74.59
76.88
75.04
69.53
61.32
51.73
42.09
33.38
25.97
19.68
14.05
8.67
3.56
-0.83
-3.79
-4.83
-3.98
-2.00
-0.14
0.30
-1.47
-5.55
-11.25
-17.55
-23.52
-28.64
-32.95
-36.86
-40.95
-45.78
-51.82
-59.44
-68.67
-78.91
-88.65
-95.54
-96.89
-90.60
-76.00
-54.26
-28.03
-0.59
25.10
47.08
64.44
77.06
85.10
88.79
88.36
84.27
77.23
68.26
58.44
48.70
39.65
31.52
24.29
17.92
12.55
8.51
6.20
5.72
6.72
8.31
9.27
8.55
5.62
0.67
-5.52
-11.94
-17.79
-22.77
-27.10
-31.43
-36.56
-43.21
-51.82
-62.23
-73.47
-83.61
-90.10
-90.30
-82.46
-66.35
-43.48
-16.71
10.73
36.05
57.48
74.21
86.08
93.10
95.44
93.43
87.80
79.69
70.45
61.26
52.83
45.34
38.53
32.05
25.72
19.69
14.38
10.28
7.68
6.46
6.05
5.58
4.16
1.21
-3.35
-9.07
-15.20
-21.02
-26.11
-30.47
-34.55
-38.91
-44.12
-50.63
-58.72
-68.34
-78.87
-88.90
-96.22
-98.31
-93.05
-79.55
-58.60
-32.53
-4.49
22.44
45.96
64.83
78.67
87.67
92.18
92.63
89.53
83.58
75.64
66.68
57.59
49.03
41.38
34.71
28.88
23.75
19.20
15.24
11.95
9.43
7.67
6.56
5.81
4.99
3.63
1.27
-2.33
-7.10
-12.72
-18.62
-24.34
-29.55
-34.25
-38.62
-43.02
-47.86
-53.62
-60.80
-69.59
-79.57
-89.28
-96.30
-97.76
-91.38
-76.42
-54.14
-27.42
0.14
25.43
46.46
62.55
73.82
80.66
83.46
82.61
78.67
72.49
65.09
57.40
50.02
43.15
36.80
30.99
25.89
21.82
19.02
17.51
16.99
16.94
16.76
16.02
14.53
12.40
9.91
7.35
4.84
2.21
-0.90
-4.91
-10.00
-16.02
-22.50
-28.84
-34.54
-39.45
-43.82
-48.14
-53.09
-59.31
-67.17
-76.45
-86.04
-93.84
-97.15
-93.53
-81.68
-62.20
-37.46
-10.88
14.16
35.25
51.26
62.17
68.47
70.77
69.62
65.61
59.51
52.26
44.81
37.87
31.77
26.47
21.69
17.14
12.71
8.48
4.72
1.76
-0.20
-1.13
-1.23
-0.85
-0.43
-0.42
-1.23
-3.12
-6.19
-10.30
-15.10
-20.12
-24.93
-29.30
-33.29
-37.24
-41.68
-47.17
-54.12
-62.57
-71.82
-80.31
-85.76
-85.73
-78.42
-63.45
-42.18
-17.33
7.79
30.26
48.15
60.70
68.04
70.76
69.63
65.44
59.10
51.59
43.87
36.63
30.16
24.34
18.84
13.34
7.80
2.50
-2.04
-5.29
-7.00
-7.42
-7.23
-7.33
-8.53
-11.18
-15.08
-19.64
-24.10
-27.96
-31.15
-34.05
-37.29
-41.56
-47.40
-54.97
-63.98
-73.33
-81.22
-85.29
-83.31
-73.96
-57.38
-35.30
-10.47
14.18
36.37
54.77
68.84
78.49
83.70
84.54
81.39
75.03
66.67
57.63
48.92
41.06
34.06
27.63
21.48
15.59
10.22
5.80
2.63
0.65
-0.62
-1.90
-3.86
-6.81
-10.57
-14.65
-18.47
-21.78
-24.71
-27.72
-31.46
-36.56
-43.51
-52.39
-62.61
-72.66
-80.25
-82.74
-78.05
-65.49
-46.12
-22.43
2.52
26.08
46.57
63.24
75.93
84.56
88.97
89.13
85.40
78.67
70.24
61.42
53.10
45.61
38.73
32.05
25.32
18.67
12.63
7.91
5.00
3.86
3.90
4.12
3.46
1.18
-2.88
-8.32
-14.38
-20.27
-25.46
-29.84
-33.71
-37.63
-42.30
-48.35
-56.22
-65.82
-76.28
-85.83
-92.00
-92.29
-84.99
-69.86
-48.35
-23.10
2.80
26.74
47.04
63.01
74.58
81.95
85.37
85.08
81.57
75.55
68.00
59.88
51.97
44.74
38.27
32.44
27.10
22.25
17.97
14.45
11.76
9.82
8.40
7.22
6.04
4.64
2.84
0.46
-2.65
-6.52
-11.02
-15.88
-20.79
-25.55
-30.17
-34.87
-40.07
-46.25
-53.82
-62.94
-73.11
-83.04
-90.57
-93.19
-88.73
-76.23
-56.45
-31.70
-5.17
20.08
41.86
59.10
71.64
79.76
83.81
84.18
81.38
76.19
69.57
62.45
55.48
48.87
42.59
36.51
30.74
25.54
21.27
18.13
16.01
14.55
13.36
12.10
10.72
9.26
7.80
6.28
4.43
1.86
-1.76
-6.59
-12.47
-18.94
-25.40
-31.32
-36.37
-40.61
-44.47
-48.63
-53.88
-60.86
-69.69
-79.60
-88.83
-94.80
-94.86
-87.15
-71.37
-49.01
-22.98
3.36
27.15
46.63
61.18
70.98
76.51
78.30
76.90
72.99
67.39
60.97
54.48
48.36
42.69
37.32
32.08
26.94
22.13
18.01
14.88
12.81
11.58
10.75
9.90
8.76
7.27
5.48
3.39
0.85
-2.38
-6.42
-11.15
-16.19
-21.06
-25.41
-29.22
-32.79
-36.61
-41.20
-47.01
-54.30
-62.98
-72.37
-81.01
-86.70
-87.04
-80.20
-65.74
-44.97
-20.63
3.97
25.96
43.57
56.26
64.33
68.40
69.06
66.80
62.19
56.01
49.13
42.39
36.34
31.13
26.60
22.42
18.31
14.15
10.06
6.24
2.99
0.58
-0.90
-1.55
-1.68
-1.76
-2.30
-3.70
-6.14
-9.58
-13.71
-18.07
-22.24
-25.95
-29.24
-32.43
-36.06
-40.75
-46.93
-54.70
-63.58
-72.32
-79.04
-81.54
-77.93
-67.31
-50.23
-28.61
-5.26
16.99
35.94
50.46
60.32
65.81
67.40
65.59
61.01
54.48
47.03
39.65
33.00
27.28
22.21
17.33
12.23
6.87
1.61
-2.94
-6.14
-7.75
-8.01
-7.64
-7.59
-8.64
-11.04
-14.52
-18.42
-22.01
-24.95
-27.35
-29.74
-32.79
-37.09
-42.99
-50.53
-59.25
-68.08
-75.24
-78.47
-75.61
-65.34
-47.82
-24.85
0.64
25.45
47.02
63.86
75.65
82.70
85.66
85.13
81.76
76.26
69.53
62.44
55.70
49.69
44.44
39.74
35.41
31.39
27.84
25.09
23.46
23.08
23.85
25.35
27.02
28.34
28.97
28.88
28.32
27.64
27.13
26.87
26.67
26.23
25.26
23.67
21.58
19.33
17.21
15.36
13.69
11.91
9.79
7.28
4.57
1.97
-0.27
-2.14
-3.84
-5.63
-7.65
-9.81
-11.79
-13.30
-14.22
-14.75
-15.29
-16.29
-18.03
-20.52
-23.47
-26.47
-29.17
-31.47
-33.59
-35.97
-39.08
-43.17
-48.08
-53.34
-58.37
-62.74
-66.41
-69.73
-73.30
-77.77
-83.72
-91.39
-100.50
-109.97
-117.82
-121.46
-118.34
-106.89
-87.20
-61.23
-32.25
-3.82
21.15
41.01
55.37
64.64
69.54
70.84
69.34
65.87
61.31
56.40
51.56
46.78
41.73
36.03
29.52
22.52
15.68
9.80
5.48
2.84
1.52
0.77
-0.18
-1.90
-4.57
-7.99
-11.75
-15.40
-18.76
-21.95
-25.46
-30.02
-36.35
-44.67
-54.34
-63.61
-69.88
-70.44
-63.43
-48.63
-27.63
-3.32
21.03
42.74
60.28
73.21
81.79
86.52
87.87
86.29
82.38
76.91
70.79
64.82
59.46
54.81
50.67
46.72
42.78
38.93
35.51
32.97
31.60
31.41
32.03
32.88
33.43
33.40
32.84
32.04
31.33
30.91
30.76
30.64
30.19
29.08
27.14
24.44
21.23
17.89
14.76
12.02
9.65
7.53
5.48
3.40
1.31
-0.73
-2.71
-4.66
-6.60
-8.46
-10.05
-11.26
-12.12
-12.94
-14.19
-16.30
-19.37
-23.08
-26.85
-30.04
-32.35
-33.91
-35.25
-37.03
-39.76
-43.58
-48.23
-53.23
-58.03
-62.31
-66.06
-69.60
-73.44
-78.14
-84.11
-91.49
-100.03
-108.87
-116.46
-120.72
-119.41
-110.87
-94.70
-72.10
-45.76
-19.04
4.97
24.18
37.88
46.48
50.93
52.32
51.47
49.01
45.39
40.99
36.07
30.81
25.30
19.64
14.07
8.93
4.56
1.21
-1.11
-2.63
-3.74
-4.85
-6.24
-8.02
-10.14
-12.51
-15.03
-17.71
-20.74
-24.47
-29.32
-35.64
-43.32
-51.53
-58.66
-62.57
-61.21
-53.38
-39.25
-20.43
0.48
20.67
37.86
50.66
58.66
62.13
61.72
58.26
52.69
45.99
39.07
32.58
26.81
21.55
16.33
10.67
4.38
-2.30
-8.69
-13.97
-17.52
-19.22
-19.55
-19.48
-20.15
-22.49
-26.82
-32.64
-38.60
-42.81
-43.30
-38.61
-28.26
-12.96
5.60
25.16
43.42
58.55
69.40
75.62
77.42
75.47
70.64
63.87
56.02
47.83
39.91
32.67
26.33
20.83
15.90
11.17
6.47
1.96
-1.88
-4.52
-5.80
-6.18
-6.67
-8.41
-12.17
-17.94
-24.94
-32.05
-38.25
-43.14
-46.98
-50.55
-54.94
-61.20
-70.01
-81.27
-93.72
-104.86
-111.29
-109.73
-98.16
-76.76
-47.99
-15.94
15.08
41.68
62.15
76.29
84.84
88.75
88.80
85.57
79.63
71.71
62.67
53.36
44.40
36.12
28.63
21.93
16.03
11.02
6.97
3.83
1.41
-0.67
-2.81
-5.38
-8.50
-12.13
-16.10
-20.32
-24.95
-30.46
-37.54
-46.73
-57.85
-69.66
-79.78
-85.23
-83.32
-72.65
-53.66
-28.58
-0.61
26.94
51.48
71.49
86.27
95.74
100.07
99.70
95.35
88.08
79.14
69.71
60.64
52.27
44.52
37.09
29.73
22.52
15.89
10.45
6.63
4.41
3.25
2.18
0.21
-3.29
-8.38
-14.63
-21.30
-27.69
-33.42
-38.57
-43.64
-49.53
-57.24
-67.46
-80.00
-93.36
-104.73
-110.54
-107.57
-94.11
-70.68
-39.97
-5.99
27.17
56.37
79.94
97.42
109.07
115.35
116.71
113.69
107.03
97.81
87.24
76.42
66.18
56.95
48.92
42.13
36.55
32.17
28.90
26.54
24.84
23.47
22.10
20.48
18.36
15.52
11.77
6.96
1.12
-5.56
-12.68
-19.80
-26.58
-32.91
-38.93
-44.99
-51.52
-58.98
-67.82
-78.39
-90.58
-103.42
-114.77
-121.50
-120.31
-108.92
-87.09
-56.99
-22.56
11.70
42.09
66.47
84.24
95.74
101.67
102.69
99.52
93.09
84.63
75.49
66.69
58.67
51.32
44.32
37.53
31.23
26.08
22.72
21.39
21.65
22.59
23.13
22.48
20.45
17.32
13.67
9.97
6.29
2.40
-2.13
-7.60
-13.97
-20.87
-27.80
-34.31
-40.31
-46.01
-51.89
-58.54
-66.56
-76.40
-88.03
-100.56
-111.93
-119.11
-118.82
-108.62
-88.02
-58.86
-24.94
9.27
39.85
64.35
81.90
92.84
98.02
98.39
94.89
88.47
80.21
71.16
62.19
53.76
46.00
38.87
32.35
26.65
22.10
19.04
17.54
17.32
17.79
18.23
17.98
16.70
14.36
11.23
7.60
3.70
-0.50
-5.20
-10.64
-16.90
-23.81
-30.94
-37.74
-43.79
-48.99
-53.61
-58.25
-63.69
-70.71
-79.70
-90.28
-100.94
-109.05
-111.32
-104.92
-88.51
-63.01
-31.49
1.79
32.67
58.32
77.60
90.76
98.67
102.14
101.68
97.72
90.95
82.45
73.47
64.99
57.38
50.34
43.28
35.71
27.74
19.99
13.33
8.53
5.87
5.05
5.27
5.48
4.57
1.68
-3.65
-11.33
-20.71
-30.79
-40.56
-49.29
-56.68
-62.92
-68.53
-74.24
-80.82
-88.74
-97.70
-106.16
-111.30
-109.61
-98.01
-75.30
-42.91
-4.78
33.85
68.14
95.05
113.86
125.80
132.99
137.48
140.71
143.25
145.01
145.60
144.58
141.96
138.68
136.82
139.15
148.06
163.91
184.06
202.91
213.34
208.87
185.69
144.18
89.40
30.52
-20.95
-53.64
-59.47
-36.18
11.51
72.84
134.13
182.85
211.17
217.48
205.70
182.77
155.98
131.08
111.54
98.68
92.26
90.87
